date,close,tr,atr_14,atr_14_pct
2021-06-01,362.39,24.92,,
2021-06-02,401.54,69.0,,
2021-06-03,428.48,41.68,,
2021-06-04,390.7,64.5,,
2021-06-05,390.08,52.2,,
2021-06-06,393.73,18.79,,
2021-06-07,357.96,53.89,,
2021-06-08,352.5,47.15,,
2021-06-09,375.54,45.21,,
2021-06-10,351.94,33.42,,
2021-06-11,345.75,25.44,,
2021-06-12,343.7,23.58,,
2021-06-13,365.8,38.52,,
2021-06-14,370.19,22.26,40.04,10.8161
2021-06-15,366.48,16.35,39.4279,10.7585
2021-06-16,347.22,23.42,36.1721,10.4176
2021-06-17,352.85,16.62,34.3821,9.7441
2021-06-18,337.16,29.9,31.9107,9.4646
2021-06-19,334.01,13.89,29.1743,8.7346
2021-06-20,339.08,30.44,30.0064,8.8494
2021-06-21,270.76,73.43,31.4021,11.5978
2021-06-22,262.1,66.08,32.7543,12.4969
2021-06-23,296.25,58.34,33.6921,11.3729
2021-06-24,308.62,34.99,33.8043,10.9534
2021-06-25,280.81,39.6,34.8157,12.3983
2021-06-26,279.65,26.07,34.9936,12.5133
2021-06-27,290.87,21.98,33.8121,11.6245
2021-06-28,290.0,16.41,33.3943,11.5153
2021-06-29,300.79,26.41,34.1129,11.3411
2021-06-30,303.71,23.35,34.1079,11.2304
2021-07-01,287.43,23.0,34.5636,12.025
2021-07-02,287.17,14.34,33.4521,11.6489
2021-07-03,298.13,20.44,33.92,11.3776
2021-07-04,307.62,22.33,33.3407,10.8383
2021-07-05,302.02,16.68,29.2871,9.6971
2021-07-06,319.92,20.7,26.0457,8.1413
2021-07-07,327.51,21.77,23.4336,7.1551
2021-07-08,310.14,23.81,22.635,7.2983
2021-07-09,317.09,18.26,21.1107,6.6576
2021-07-10,316.12,10.87,20.025,6.3346
2021-07-11,322.16,14.61,19.4986,6.0524
2021-07-12,316.12,25.8,20.1693,6.3803
2021-07-13,308.94,13.13,19.2207,6.2215
2021-07-14,309.4,23.22,19.2114,6.2093
2021-07-15,316.11,23.01,19.2121,6.0777
2021-07-16,302.88,22.0,19.7593,6.5238
2021-07-17,300.52,11.71,19.1357,6.3675
2021-07-18,302.1,10.48,18.2893,6.0541
2021-07-19,280.54,25.09,18.89,6.7334
2021-07-20,264.44,29.08,19.4886,7.3698
2021-07-21,293.26,37.9,20.6407,7.0384
2021-07-22,293.36,11.14,19.7357,6.7275
2021-07-23,299.27,20.49,19.895,6.6478
2021-07-24,301.56,12.36,20.0014,6.6327
2021-07-25,302.56,12.1,19.8221,6.5515
2021-07-26,304.0,27.0,19.9079,6.5486
2021-07-27,313.48,20.8,20.4557,6.5254
2021-07-28,313.8,10.68,19.56,6.2333
2021-07-29,317.03,11.71,18.7529,5.9152
2021-07-30,322.58,19.5,18.5743,5.758
2021-07-31,332.38,21.23,19.2543,5.7929
2021-08-01,332.59,18.81,19.8493,5.9681
2021-08-02,330.55,12.12,18.9229,5.7247
2021-08-03,323.43,17.71,18.1107,5.5996
2021-08-04,334.77,17.61,16.6614,4.977
2021-08-05,337.91,16.8,17.0657,5.0504
2021-08-06,342.39,16.02,16.7464,4.891
2021-08-07,356.18,19.4,17.2493,4.8429
2021-08-08,341.79,22.87,18.0186,5.2718
2021-08-09,354.32,24.55,17.8436,5.036
2021-08-10,371.92,28.6,18.4007,4.9475
2021-08-11,390.96,37.63,20.3257,5.1989
2021-08-12,385.66,34.59,21.96,5.6941
2021-08-13,410.76,28.55,22.6064,5.5036
2021-08-14,408.67,18.8,22.4329,5.4892
2021-08-15,414.05,19.28,22.4664,5.426
2021-08-16,415.72,26.21,23.4729,5.6463
2021-08-17,401.8,37.0,24.8507,6.1848
2021-08-18,396.15,26.89,25.5136,6.4404
2021-08-19,431.27,40.81,27.2286,6.3136
2021-08-20,454.93,36.16,28.6671,6.3014
2021-08-21,448.74,16.53,28.4621,6.3427
2021-08-22,448.68,20.57,28.2979,6.3069
2021-08-23,499.06,63.82,31.1029,6.2323
2021-08-24,471.62,43.08,32.1371,6.8142
2021-08-25,503.19,37.0,32.0921,6.3777
2021-08-26,478.1,47.74,33.0314,6.9089
2021-08-27,494.5,27.9,32.985,6.6704
2021-08-28,486.2,14.7,32.6921,6.724
2021-08-29,479.7,20.5,32.7793,6.8333
2021-08-30,460.3,23.9,32.6143,7.0854
2021-08-31,463.9,29.6,32.0857,6.9165
2021-09-01,489.4,34.9,32.6579,6.673
2021-09-02,483.7,26.7,31.65,6.5433
2021-09-03,488.5,22.0,30.6386,6.272
2021-09-04,497.7,24.7,31.2221,6.2733
2021-09-05,504.8,16.8,30.9529,6.1317
2021-09-06,496.1,22.1,27.9729,5.6386
2021-09-07,418.7,135.8,34.5957,8.2626
2021-09-08,415.0,43.2,35.0386,8.443
2021-09-09,421.3,32.7,33.9643,8.0618
2021-09-10,401.4,46.2,35.2714,8.7871
2021-09-11,405.1,16.0,35.3643,8.7298
2021-09-12,416.3,24.1,35.6214,8.5567
2021-09-13,399.1,36.7,36.5357,9.1545
2021-09-14,414.3,19.0,35.7786,8.6359
2021-09-15,431.3,28.4,35.3143,8.1879
2021-09-16,424.3,19.4,34.7929,8.2001
2021-09-17,406.6,25.6,35.05,8.6203
2021-09-18,410.7,18.5,34.6071,8.4264
2021-09-19,408.6,16.2,34.5643,8.4592
2021-09-20,364.1,56.4,37.0143,10.166
2021-09-21,344.4,39.2,30.1143,8.744
2021-09-22,379.0,37.6,29.7143,7.8402
2021-09-23,383.5,15.6,28.4929,7.4297
2021-09-24,355.0,51.7,28.8857,8.1368
2021-09-25,349.6,17.6,29.0,8.2952
2021-09-26,344.0,33.0,29.6357,8.615
2021-09-27,335.5,22.6,28.6286,8.5331
2021-09-28,333.0,14.6,28.3143,8.5028
2021-09-29,367.7,44.2,29.4429,8.0073
2021-09-30,387.5,22.4,29.6571,7.6535
2021-10-01,421.5,41.9,30.8214,7.3123
2021-10-02,427.1,27.6,31.4714,7.3686
2021-10-03,430.5,15.7,31.4357,7.3021
2021-10-04,426.3,20.0,28.8357,6.7642
2021-10-05,442.1,20.0,27.4643,6.2122
2021-10-06,434.9,28.1,26.7857,6.1591
2021-10-07,438.5,26.4,27.5571,6.2844
2021-10-08,419.2,25.9,25.7143,6.1341
2021-10-09,421.9,10.0,25.1714,5.9662
2021-10-10,404.1,20.3,24.2643,6.0045
2021-10-11,413.1,24.2,24.3786,5.9014
2021-10-12,444.2,52.3,27.0714,6.0944
2021-10-13,470.8,39.5,26.7357,5.6788
2021-10-14,472.7,21.6,26.6786,5.6439
2021-10-15,474.5,27.2,25.6286,5.4012
2021-10-16,465.8,61.7,28.0643,6.025
2021-10-17,470.9,18.2,28.2429,5.9976
2021-10-18,484.9,21.2,28.3286,5.8421
2021-10-19,488.1,17.3,28.1357,5.7643
2021-10-20,501.3,24.6,27.8857,5.5627
2021-10-21,470.9,38.9,28.7786,6.1114
2021-10-22,479.3,27.3,28.8786,6.0252
2021-10-23,485.5,13.1,29.1,5.9938
2021-10-24,475.8,18.7,28.9857,6.092
2021-10-25,485.1,13.9,28.25,5.8235
2021-10-26,478.1,16.3,25.6786,5.371
2021-10-27,448.7,51.1,26.5071,5.9075
2021-10-28,491.9,48.4,28.4214,5.7779
2021-10-29,530.3,46.01,29.765,5.6129
2021-10-30,528.3,30.3,27.5221,5.2096
2021-10-31,524.6,26.1,28.0864,5.3539
2021-11-01,551.3,40.9,29.4936,5.3498
2021-11-02,554.4,26.6,30.1579,5.4397
2021-11-03,568.4,32.6,30.7293,5.4063
2021-11-04,558.7,25.3,29.7579,5.3263
2021-11-05,607.3,62.8,32.2936,5.3176
2021-11-06,637.7,42.7,34.4079,5.3956
2021-11-07,649.6,38.8,35.8436,5.5178
2021-11-08,653.5,24.7,36.615,5.6029
2021-11-09,635.0,24.8,37.2221,5.8618
2021-11-10,614.1,89.9,39.9936,6.5126
2021-11-11,628.4,29.5,38.6436,6.1495
2021-11-12,626.9,31.8,37.6286,6.0023
2021-11-13,649.5,35.4,37.9929,5.8496
2021-11-14,650.8,26.5,38.0214,5.8423
2021-11-15,633.8,29.2,37.1857,5.8671
2021-11-16,588.7,61.5,39.6786,6.74
2021-11-17,578.0,38.9,40.1286,6.9427
2021-11-18,531.8,78.2,43.9071,8.2563
2021-11-19,581.0,61.6,43.8214,7.5424
2021-11-20,604.3,32.2,43.0714,7.1275
2021-11-21,584.0,25.6,42.1286,7.2138
2021-11-22,559.3,31.7,42.6286,7.6218
2021-11-23,591.1,47.1,44.2214,7.4812
2021-11-24,590.3,17.5,39.05,6.6153
2021-11-25,639.1,62.6,41.4143,6.4801
2021-11-26,587.3,93.7,45.8357,7.8045
2021-11-27,599.9,38.7,46.0714,7.6799
2021-11-28,611.3,41.3,47.1286,7.7096
2021-11-29,623.4,27.4,47.0,7.5393
2021-11-30,622.5,32.4,44.9214,7.2163
2021-12-01,627.5,31.6,44.4,7.0757
2021-12-02,619.9,25.4,40.6286,6.5541
2021-12-03,595.0,54.0,40.0857,6.7371
2021-12-04,568.6,106.8,45.4143,7.987
2021-12-05,557.8,42.1,46.5929,8.353
2021-12-06,587.5,60.0,48.6143,8.2748
2021-12-07,578.7,21.9,46.8143,8.0896
2021-12-08,607.2,40.6,48.4643,7.9816
2021-12-09,570.2,49.3,47.5143,8.3329
2021-12-10,552.4,44.9,44.0286,7.9704
2021-12-11,564.5,30.7,43.4571,7.6983
2021-12-12,570.3,15.5,41.6143,7.2969
2021-12-13,521.0,61.1,44.0214,8.4494
2021-12-14,528.1,26.1,43.5714,8.2506
2021-12-15,541.1,45.1,44.5357,8.2306
2021-12-16,526.2,20.5,44.1857,8.3971
2021-12-17,525.5,24.8,42.1,8.0114
2021-12-18,533.9,22.8,36.1,6.7616
2021-12-19,529.8,17.3,34.3286,6.4795
2021-12-20,524.0,29.2,32.1286,6.1314
2021-12-21,528.3,25.9,32.4143,6.1356
2021-12-22,533.6,17.8,30.7857,5.7694
2021-12-23,549.0,28.3,29.2857,5.3344
2021-12-24,542.1,17.0,27.2929,5.0347
2021-12-25,547.4,11.4,25.9143,4.7341
2021-12-26,546.4,13.7,25.7857,4.7192
2021-12-27,563.7,28.9,23.4857,4.1663
2021-12-28,534.2,35.3,24.1429,4.5194
2021-12-29,514.5,30.2,23.0786,4.4856
2021-12-30,518.5,19.5,23.0071,4.4373
2021-12-31,511.4,22.3,22.8286,4.4639
2022-01-01,527.3,16.5,22.3786,4.244
2022-01-02,531.0,15.9,22.2786,4.1956
2022-01-03,511.9,22.8,21.8214,4.2628
2022-01-04,506.9,18.0,21.2571,4.1936
2022-01-05,474.1,59.0,24.2,5.1044
2022-01-06,472.6,22.5,23.7857,5.0329
2022-01-07,448.1,36.4,25.1714,5.6174
2022-01-08,429.9,44.7,27.55,6.4085
2022-01-09,438.7,17.5,27.8214,6.3418
2022-01-10,424.7,39.9,28.6071,6.7358
2022-01-11,463.6,46.4,29.4,6.3417
2022-01-12,487.8,33.3,29.6214,6.0725
2022-01-13,475.2,23.3,29.8929,6.2906
2022-01-14,490.0,24.7,30.0643,6.1356
2022-01-15,494.5,15.9,30.0214,6.0711
2022-01-16,498.6,17.4,30.1286,6.0426
2022-01-17,475.2,32.2,30.8,6.4815
2022-01-18,471.4,22.4,31.1143,6.6004
2022-01-19,461.9,19.4,28.2857,6.1238
2022-01-20,440.2,40.5,29.5714,6.7177
2022-01-21,383.9,70.9,32.0357,8.3448
2022-01-22,358.3,53.3,32.65,9.1125
2022-01-23,383.9,32.7,33.7357,8.7876
2022-01-24,371.3,48.0,34.3143,9.2417
2022-01-25,385.1,32.1,33.2929,8.6452
2022-01-26,375.1,36.0,33.4857,8.9271
2022-01-27,389.9,33.8,34.2357,8.7806
2022-01-28,385.9,20.1,33.9071,8.7865
2022-01-29,389.3,16.6,33.9571,8.7226
2022-01-30,377.2,17.4,33.9571,9.0024
2022-01-31,374.3,20.2,33.1,8.8432
2022-02-01,384.2,14.7,32.55,8.4721
2022-02-02,366.9,20.0,32.5929,8.8833
2022-02-03,372.3,12.8,30.6143,8.223
2022-02-04,399.5,30.2,27.7071,6.9355
2022-02-05,413.7,34.7,26.3786,6.3763
2022-02-06,419.9,15.5,25.15,5.9895
2022-02-07,433.5,25.7,23.5571,5.4342
2022-02-08,407.8,39.2,24.0643,5.901
2022-02-09,422.9,20.6,22.9643,5.4302
2022-02-10,414.7,24.9,22.3286,5.3843
2022-02-11,400.0,28.4,22.9214,5.7304
2022-02-12,403.6,13.8,22.7214,5.6297
2022-02-13,397.9,13.1,22.4143,5.6331
2022-02-14,403.4,13.9,21.9643,5.4448
2022-02-15,432.4,40.3,23.7929,5.5025
2022-02-16,427.3,11.3,23.1714,5.4228
2022-02-17,402.4,31.1,24.4786,6.0831
2022-02-18,399.2,18.8,23.6643,5.9279
2022-02-19,399.8,13.4,22.1429,5.5385
2022-02-20,380.6,25.0,22.8214,5.9962
2022-02-21,356.6,38.7,23.75,6.6601
2022-02-22,374.3,26.7,22.8571,6.1066
2022-02-23,365.6,18.9,22.7357,6.2187
2022-02-24,361.2,47.8,24.3714,6.7474
2022-02-25,375.0,20.4,23.8,6.3467
2022-02-26,373.7,15.6,23.9286,6.4031
2022-02-27,360.1,23.1,24.6429,6.8433
2022-02-28,395.6,41.4,26.6071,6.7258
2022-03-01,408.7,34.5,26.1929,6.4088
2022-03-02,409.3,11.9,26.2357,6.4099
2022-03-03,402.6,15.8,25.1429,6.2451
2022-03-04,374.2,31.5,26.05,6.9615
2022-03-05,384.7,20.1,26.5286,6.8959
2022-03-06,375.0,15.7,25.8643,6.8971
2022-03-07,380.6,23.1,24.75,6.5029
2022-03-08,381.4,13.4,23.8,6.2402
2022-03-09,393.2,21.7,24.0,6.1038
2022-03-10,372.0,31.5,22.8357,6.1386
2022-03-11,371.9,15.3,22.4714,6.0423
2022-03-12,372.4,8.1,21.9357,5.8904
2022-03-13,361.4,17.1,21.5071,5.9511
2022-03-14,373.4,14.4,19.5786,5.2433
2022-03-15,371.7,13.0,18.0429,4.8541
2022-03-16,385.4,18.8,18.5357,4.8095
2022-03-17,391.8,11.8,18.25,4.658
2022-03-18,397.2,16.0,17.1429,4.3159
2022-03-19,399.9,11.5,16.5286,4.1332
2022-03-20,390.8,14.6,16.45,4.2093
2022-03-21,396.0,14.7,15.85,4.0025
2022-03-22,404.3,15.2,15.9786,3.9522
2022-03-23,408.4,13.8,15.4143,3.7743
2022-03-24,414.2,11.6,13.9929,3.3783
2022-03-25,410.3,16.0,14.0429,3.4226
2022-03-26,415.8,8.9,14.1,3.3911
2022-03-27,430.5,19.9,14.3,3.3217
2022-03-28,430.2,13.4,14.2286,3.3074
2022-03-29,434.2,12.2,14.1714,3.2638
2022-03-30,442.1,23.8,14.5286,3.2863
2022-03-31,428.9,28.4,15.7143,3.6639
2022-04-01,447.7,35.4,17.1,3.8195
2022-04-02,437.2,18.5,17.6,4.0256
2022-04-03,450.4,23.5,18.2357,4.0488
2022-04-04,447.6,17.1,18.4071,4.1124
2022-04-05,444.7,15.9,18.4571,4.1505
2022-04-06,420.1,30.3,19.6357,4.6741
2022-04-07,436.0,33.8,21.2214,4.8673
2022-04-08,421.5,23.6,21.7643,5.1635
2022-04-09,426.6,8.6,21.7429,5.0968
2022-04-10,418.1,12.5,21.2143,5.074
2022-04-11,394.6,28.5,22.2929,5.6495
2022-04-12,413.6,24.7,23.1857,5.6058
2022-04-13,423.4,14.3,22.5071,5.3158
2022-04-14,414.7,15.6,21.5929,5.2069
2022-04-15,417.3,7.5,19.6,4.6969
2022-04-16,417.3,7.4,18.8071,4.5069
2022-04-17,406.6,12.7,18.0357,4.4357
2022-04-18,416.8,21.8,18.3714,4.4077
2022-04-19,422.3,10.1,17.9571,4.2522
2022-04-20,418.4,16.5,16.9714,4.0563
2022-04-21,404.9,24.8,16.3286,4.0327
2022-04-22,406.6,10.6,15.4,3.7875
2022-04-23,401.1,10.8,15.5571,3.8786
2022-04-24,398.8,8.4,15.2643,3.8276
2022-04-25,404.3,23.4,14.9,3.6854
2022-04-26,385.9,26.7,15.0429,3.8981
2022-04-27,391.3,11.5,14.8429,3.7932
2022-04-28,407.1,20.1,15.1643,3.725
2022-04-29,393.0,21.0,16.1286,4.104
2022-04-30,377.1,23.6,17.2857,4.5839
2022-05-01,389.9,15.9,17.5143,4.492
2022-05-02,389.5,10.5,16.7071,4.2894
2022-05-03,383.9,12.5,16.8786,4.3966
2022-05-04,402.6,20.4,17.1571,4.2616
2022-05-05,378.4,42.9,18.45,4.8758
2022-05-06,379.1,12.7,18.6,4.9064
2022-05-07,365.5,20.5,19.2929,5.2785
2022-05-08,355.9,17.5,19.9429,5.6035
2022-05-09,296.1,63.9,22.8357,7.7122
2022-05-10,319.1,43.8,24.0571,7.5391
2022-05-11,271.5,62.2,27.6786,10.1947
2022-05-12,269.0,66.2,30.9714,11.5135
2022-05-13,290.6,48.1,32.9071,11.3239
2022-05-14,296.9,27.4,33.1786,11.175
2022-05-15,312.4,26.9,33.9643,10.8721
2022-05-16,297.2,22.2,34.8,11.7093
2022-05-17,306.2,14.9,34.9714,11.4211
2022-05-18,287.7,21.8,35.0714,12.1903
2022-05-19,307.1,22.1,33.5857,10.9364
2022-05-20,302.2,22.0,34.25,11.3336
2022-05-21,312.4,14.9,33.85,10.8355
2022-05-22,319.4,12.2,33.4714,10.4795
2022-05-23,317.2,21.7,30.4571,9.6019
2022-05-24,328.3,18.3,28.6357,8.7224
2022-05-25,325.7,13.9,25.1857,7.7328
2022-05-26,303.0,35.1,22.9643,7.579
2022-05-27,301.6,19.2,20.9,6.9297
2022-05-28,307.5,13.6,19.9143,6.4762
2022-05-29,305.8,9.6,18.6786,6.1081
2022-05-30,321.8,20.1,18.5286,5.7578
2022-05-31,320.9,11.3,18.2714,5.6938
2022-06-01,300.4,26.9,18.6357,6.2036
2022-06-02,308.3,11.0,17.8429,5.7875
2022-06-03,298.6,17.0,17.4857,5.8559
2022-06-04,301.3,8.1,17.0,5.6422
2022-06-05,299.1,7.5,16.6643,5.5715
2022-06-06,295.1,24.3,16.85,5.7099
2022-06-07,290.3,22.4,17.1429,5.9052
2022-06-08,288.5,10.7,16.9143,5.8628
2022-06-09,289.9,7.1,14.9143,5.1446
2022-06-10,286.4,15.7,14.6643,5.1202
2022-06-11,269.9,25.4,15.5071,5.7455
2022-06-12,254.8,20.9,16.3143,6.4028
2022-06-13,223.0,44.6,18.0643,8.1006
2022-06-14,223.0,27.3,19.2071,8.6131
2022-06-15,233.6,36.3,19.8786,8.5097
2022-06-16,210.2,29.5,21.2,10.0856
2022-06-17,215.8,14.4,21.0143,9.7379
2022-06-18,197.0,35.6,22.9786,11.6642
2022-06-19,215.1,27.3,24.3929,11.3402
2022-06-20,216.5,15.0,23.7286,10.9601
2022-06-21,220.1,15.3,23.2214,10.5504
2022-06-22,214.4,9.8,23.1571,10.8009
2022-06-23,228.9,17.7,23.9143,10.4475
2022-06-24,240.2,15.0,23.8643,9.9352
2022-06-25,239.7,12.4,22.9357,9.5685
2022-06-26,233.9,12.0,22.3,9.534
2022-06-27,233.8,11.0,19.9,8.5115
2022-06-28,226.9,16.9,19.1571,8.443
2022-06-29,219.7,14.4,17.5929,8.0077
2022-06-30,219.6,14.9,16.55,7.5364
2022-07-01,216.9,13.3,16.4714,7.594
2022-07-02,218.3,5.9,14.35,6.5735
2022-07-03,219.2,6.2,12.8429,5.859
2022-07-04,231.5,17.4,13.0143,5.6217
2022-07-05,230.8,13.7,12.9,5.5893
2022-07-06,238.6,11.0,12.9857,5.4425
2022-07-07,241.4,13.8,12.7071,5.2639
2022-07-08,240.7,10.7,12.4,5.1516
2022-07-09,243.3,4.6,11.8429,4.8676
2022-07-10,234.7,11.8,11.8286,5.0399
2022-07-11,225.6,9.9,11.75,5.2083
2022-07-12,220.6,8.1,11.1214,5.0414
2022-07-13,230.5,14.9,11.1571,4.8404
2022-07-14,238.5,12.9,11.0143,4.6181
2022-07-15,238.5,7.3,10.5857,4.4385
2022-07-16,249.8,17.6,11.4214,4.5722
2022-07-17,247.8,9.7,11.6714,4.71
2022-07-18,264.1,18.0,11.7143,4.4355
2022-07-19,268.6,19.0,12.0929,4.5022
2022-07-20,258.2,15.6,12.4214,4.8108
2022-07-21,265.6,15.3,12.5286,4.7171
2022-07-22,262.4,10.3,12.5,4.7637
2022-07-23,259.2,19.9,13.5929,5.2442
2022-07-24,261.4,9.1,13.4,5.1262
2022-07-25,244.6,18.9,14.0429,5.7412
2022-07-26,249.4,10.0,14.1786,5.6851
2022-07-27,271.6,24.5,14.8643,5.4729
2022-07-28,277.2,17.2,15.1714,5.4731
2022-07-29,293.6,27.2,16.5929,5.6515
2022-07-30,287.8,15.1,16.4143,5.7034
2022-07-31,283.4,15.0,16.7929,5.9255
2022-08-01,283.2,12.6,16.4071,5.7935
2022-08-02,283.8,16.9,16.2571,5.7284
2022-08-03,297.5,27.5,17.1071,5.7503
2022-08-04,311.8,16.2,17.1714,5.5072
2022-08-05,315.9,13.4,17.3929,5.5058
2022-08-06,315.2,10.3,16.7071,5.3005
2022-08-07,322.8,17.7,17.3214,5.366
2022-08-08,324.9,13.2,16.9143,5.206
2022-08-09,324.4,15.9,17.3357,5.3439
2022-08-10,328.8,23.2,17.2429,5.2442
2022-08-11,323.6,12.7,16.9214,5.2291
2022-08-12,327.9,10.4,15.7214,4.7946
2022-08-13,324.3,10.2,15.3714,4.7399
2022-08-14,317.6,15.2,15.3857,4.8444
2022-08-15,319.5,13.8,15.4714,4.8424
2022-08-16,316.1,10.4,15.0071,4.7476
2022-08-17,306.9,19.8,14.4571,4.7107
2022-08-18,298.1,15.2,14.3857,4.8258
2022-08-19,279.1,22.0,15.0,5.3744
2022-08-20,283.7,12.4,15.15,5.3401
2022-08-21,301.9,20.8,15.3714,5.0916
2022-08-22,300.0,16.1,15.5786,5.1929
2022-08-23,299.3,7.9,15.0071,5.0141
2022-08-24,296.4,6.2,13.7929,4.6535
2022-08-25,301.2,11.5,13.7071,4.5508
2022-08-26,279.6,25.1,14.7571,5.2779
2022-08-27,277.9,11.5,14.85,5.3436
2022-08-28,276.5,8.5,14.3714,5.1976
2022-08-29,285.9,14.4,14.4143,5.0417
2022-08-30,281.6,15.9,14.8071,5.2582
2022-08-31,279.2,12.3,14.2714,5.1115
2022-09-01,278.3,9.6,13.8714,4.9843
2022-09-02,277.5,9.7,12.9929,4.6821
2022-09-03,277.8,4.6,12.4357,4.4765
2022-09-04,279.1,5.6,11.35,4.0666
2022-09-05,276.9,8.6,10.8143,3.9055
2022-09-06,262.5,25.3,12.0571,4.5932
2022-09-07,278.9,21.8,13.1714,4.7226
2022-09-08,280.5,7.5,12.8857,4.5938
2022-09-09,293.4,15.9,12.2286,4.1679
2022-09-10,296.7,8.3,12.0,4.0445
2022-09-11,295.3,8.4,11.9929,4.0612
2022-09-12,294.1,9.2,11.6214,3.9515
2022-09-13,277.4,23.2,12.1429,4.3774
2022-09-14,279.3,9.5,11.9429,4.276
2022-09-15,271.1,14.2,12.2714,4.5265
2022-09-16,274.9,8.1,12.1571,4.4224
2022-09-17,279.1,5.2,12.2,4.3712
2022-09-18,266.2,17.2,13.0286,4.8943
2022-09-19,271.9,16.3,13.5786,4.994
2022-09-20,266.3,8.5,12.3786,4.6484
2022-09-21,264.0,16.1,11.9714,4.5346
2022-09-22,275.3,13.2,12.3786,4.4964
2022-09-23,276.7,9.6,11.9286,4.311
2022-09-24,274.4,10.8,12.1071,4.4122
2022-09-25,274.3,9.1,12.1571,4.4321
2022-09-26,276.1,6.1,11.9357,4.323
2022-09-27,272.3,17.4,11.5214,4.2312
2022-09-28,281.6,17.4,12.0857,4.2918
2022-09-29,284.1,8.5,11.6786,4.1107
2022-09-30,284.8,9.3,11.7643,4.1307
2022-10-01,282.9,7.7,11.9429,4.2216
2022-10-02,284.7,8.5,11.3214,3.9766
2022-10-03,286.9,6.0,10.5857,3.6897
2022-10-04,296.2,11.9,10.8286,3.6558
2022-10-05,294.2,7.2,10.1929,3.4646
2022-10-06,287.0,19.5,10.6429,3.7083
2022-10-07,282.3,7.9,10.5214,3.727
2022-10-08,276.4,7.3,10.2714,3.7161
2022-10-09,278.2,4.3,9.9286,3.5689
2022-10-10,271.5,7.9,10.0571,3.7043
2022-10-11,271.4,6.8,9.3,3.4267
2022-10-12,270.9,3.7,8.3214,3.0718
2022-10-13,271.6,16.9,8.9214,3.2848
2022-10-14,269.4,9.2,8.9143,3.3089
2022-10-15,268.2,4.0,8.65,3.2252
2022-10-16,272.5,6.0,8.4714,3.1088
2022-10-17,275.6,6.1,8.4786,3.0764
2022-10-18,273.1,5.9,8.05,2.9476
2022-10-19,272.0,3.6,7.7929,2.865
2022-10-20,269.0,6.1,6.8357,2.5412
2022-10-21,270.1,7.8,6.8286,2.5282
2022-10-22,270.4,2.7,6.5,2.4038
2022-10-23,276.0,8.1,6.7714,2.4534
2022-10-24,274.1,5.8,6.6214,2.4157
2022-10-25,284.2,17.9,7.4143,2.6088
2022-10-26,290.2,7.9,7.7143,2.6583
2022-10-27,286.7,8.6,7.1214,2.4839
2022-10-28,297.9,15.4,7.5643,2.5392
2022-10-29,304.4,12.8,8.1929,2.6915
2022-10-30,313.5,16.5,8.9429,2.8526
2022-10-31,325.7,31.4,10.75,3.3006
2022-11-01,323.9,17.2,11.5571,3.5681
2022-11-02,320.2,14.7,12.35,3.857
2022-11-03,329.5,20.7,13.3929,4.0646
2022-11-04,354.6,30.6,15.0214,4.2362
2022-11-05,349.2,15.2,15.9143,4.5574
2022-11-06,337.9,18.3,16.6429,4.9254
2022-11-07,337.0,18.0,17.5143,5.1971
2022-11-08,327.4,100.3,23.4,7.1472
2022-11-09,267.3,72.9,28.0429,10.4912
2022-11-10,304.0,49.8,30.9857,10.1927
2022-11-11,290.4,27.0,31.8143,10.9553
2022-11-12,282.8,22.9,32.5357,11.5048
2022-11-13,276.4,13.3,32.3071,11.6885
2022-11-14,279.0,24.0,31.7786,11.3902
2022-11-15,277.0,9.2,31.2071,11.2661
2022-11-16,271.8,11.4,30.9714,11.3949
2022-11-17,267.9,10.6,30.25,11.2915
2022-11-18,274.1,7.1,28.5714,10.4237
2022-11-19,272.6,5.7,27.8929,10.2322
2022-11-20,264.2,12.0,27.4429,10.3872
2022-11-21,253.9,15.3,27.25,10.7326
2022-11-22,266.7,15.8,21.2143,7.9544
2022-11-23,298.8,37.0,18.65,6.2416
2022-11-24,300.2,10.2,15.8214,5.2703
2022-11-25,300.8,12.5,14.7857,4.9155
2022-11-26,311.4,17.9,14.4286,4.6335
2022-11-27,307.6,10.4,14.2214,4.6234
2022-11-28,293.5,23.0,14.15,4.8211
2022-11-29,295.4,16.3,14.6571,4.9618
2022-11-30,300.6,13.0,14.7714,4.914
2022-12-01,292.3,12.0,14.8714,5.0877
2022-12-02,293.4,8.5,14.9714,5.1027
2022-12-03,290.4,5.4,14.95,5.1481
2022-12-04,291.8,5.4,14.4786,4.9618
2022-12-05,288.4,11.1,14.1786,4.9163
2022-12-06,290.2,4.3,13.3571,4.6027
2022-12-07,284.2,9.8,11.4143,4.0163
2022-12-08,290.4,9.6,11.3714,3.9158
2022-12-09,286.0,7.6,11.0214,3.8536
2022-12-10,288.2,4.2,10.0429,3.4847
2022-12-11,284.4,8.1,9.8786,3.4735
2022-12-12,276.1,14.1,9.2429,3.3476
2022-12-13,272.2,26.4,9.9643,3.6606
2022-12-14,267.7,12.9,9.9571,3.7195
2022-12-15,258.8,11.6,9.9286,3.8364
2022-12-16,231.2,40.0,12.1786,5.2675
2022-12-17,242.1,25.0,13.5786,5.6087
2022-12-18,251.0,15.1,14.2714,5.6858
2022-12-19,240.4,16.5,14.6571,6.097
2022-12-20,251.4,14.4,15.3786,6.1172
2022-12-21,246.2,6.3,15.1286,6.1448
2022-12-22,245.8,8.2,15.0286,6.1141
2022-12-23,246.2,5.0,14.8429,6.0288
2022-12-24,244.5,2.9,14.75,6.0327
2022-12-25,243.2,4.4,14.4857,5.9563
2022-12-26,244.3,2.9,13.6857,5.602
2022-12-27,246.7,6.8,12.2857,4.98
2022-12-28,244.5,5.9,11.7857,4.8203
2022-12-29,246.3,3.6,11.2143,4.5531
2022-12-30,245.8,4.0,8.6429,3.5162
2022-12-31,246.3,3.2,7.0857,2.8769
2023-01-01,244.4,3.3,6.2429,2.5544
2023-01-02,245.2,7.2,5.5786,2.2751
2023-01-03,246.1,2.6,4.7357,1.9243
2023-01-04,258.9,15.4,5.3857,2.0802
2023-01-05,256.7,4.0,5.0857,1.9812
2023-01-06,259.9,6.5,5.1929,1.998
2023-01-07,261.3,4.5,5.3071,2.0311
2023-01-08,274.9,16.4,6.1643,2.2424
2023-01-09,272.6,12.2,6.8286,2.505
2023-01-10,277.1,8.6,6.9571,2.5107
2023-01-11,284.8,13.6,7.5071,2.6359
2023-01-12,287.7,10.1,7.9714,2.7707
2023-01-13,293.7,11.1,8.4786,2.8868
2023-01-14,305.1,21.3,9.7714,3.2027
2023-01-15,302.2,14.3,10.5571,3.4934
2023-01-16,299.0,15.0,11.1143,3.7172
2023-01-17,299.4,10.9,11.7071,3.9102
2023-01-18,286.7,24.2,12.3357,4.3027
2023-01-19,294.6,9.4,12.7214,4.3182
2023-01-20,305.1,18.8,13.6,4.4576
2023-01-21,299.0,11.5,14.1,4.7157
2023-01-22,303.0,12.9,13.85,4.571
2023-01-23,305.1,7.0,13.4786,4.4178
2023-01-24,300.3,24.3,14.6,4.8618
2023-01-25,306.9,20.6,15.1,4.9202
2023-01-26,304.7,7.9,14.9429,4.9041
2023-01-27,308.0,11.7,14.9857,4.8655
2023-01-28,306.1,10.0,14.1786,4.632
2023-01-29,317.2,15.7,14.2786,4.5014
2023-01-30,307.2,18.8,14.55,4.7363
2023-01-31,312.0,9.1,14.4214,4.6223
2023-02-01,317.0,13.8,13.6786,4.315
2023-02-02,323.5,18.1,14.3,4.4204
2023-02-03,332.2,17.2,14.1857,4.2702
2023-02-04,330.4,7.1,13.8714,4.1984
2023-02-05,327.8,13.8,13.9357,4.2513
2023-02-06,324.3,10.8,14.2071,4.3809
2023-02-07,333.0,10.5,13.2214,3.9704
2023-02-08,328.2,12.2,12.6214,3.8457
2023-02-09,306.2,27.3,14.0071,4.5745
2023-02-10,305.8,6.7,13.65,4.4637
2023-02-11,310.4,6.3,13.3857,4.3124
2023-02-12,312.6,15.0,13.3357,4.2661
2023-02-13,294.3,32.9,14.3429,4.8735
2023-02-14,296.2,11.9,14.5429,4.9098
2023-02-15,317.4,23.7,15.25,4.8047
2023-02-16,304.4,23.9,15.6643,5.146
2023-02-17,313.0,14.7,15.4857,4.9475
2023-02-18,316.5,6.3,15.4286,4.8747
2023-02-19,311.5,8.6,15.0571,4.8338
2023-02-20,315.4,11.8,15.1286,4.7966
2023-02-21,311.5,8.1,14.9571,4.8017
2023-02-22,312.4,9.7,14.7786,4.7307
2023-02-23,308.3,9.5,13.5071,4.3812
2023-02-24,302.3,13.5,13.9929,4.6288
2023-02-25,302.4,7.5,14.0786,4.6556
2023-02-26,308.7,9.1,13.6571,4.4241
2023-02-27,304.6,8.9,11.9429,3.9208
2023-02-28,301.4,5.7,11.5,3.8155
2023-03-01,302.7,5.9,10.2286,3.3791
2023-03-02,299.8,8.0,9.0929,3.033
2023-03-03,290.4,13.4,9.0,3.0992
2023-03-04,289.6,5.7,8.9571,3.0929
2023-03-05,288.7,5.4,8.7286,3.0234
2023-03-06,287.8,6.4,8.3429,2.8988
2023-03-07,289.3,7.1,8.2714,2.8591
2023-03-08,287.1,9.2,8.2357,2.8686
2023-03-09,277.1,20.2,9.0,3.2479
2023-03-10,277.4,13.1,8.9714,3.2341
2023-03-11,276.0,11.3,9.2429,3.3489
2023-03-12,288.1,15.6,9.7071,3.3694
2023-03-13,307.9,28.0,11.0714,3.5958
2023-03-14,308.4,17.5,11.9143,3.8633
2023-03-15,306.3,12.7,12.4,4.0483
2023-03-16,329.4,30.0,13.9714,4.2415
2023-03-17,338.9,15.0,14.0857,4.1563
2023-03-18,331.0,18.3,14.9857,4.5274
2023-03-19,336.7,11.4,15.4143,4.578
2023-03-20,332.5,7.8,15.5143,4.666
2023-03-21,334.4,12.8,15.9214,4.7612
2023-03-22,321.1,23.5,16.9429,5.2765
2023-03-23,329.4,13.2,16.4429,4.9918
2023-03-24,322.1,13.1,16.4429,5.1049
2023-03-25,322.4,5.9,16.0571,4.9805
2023-03-26,328.6,7.8,15.5,4.717
2023-03-27,310.6,23.9,15.2071,4.8961
2023-03-28,313.2,9.0,14.6,4.6616
2023-03-29,313.7,7.5,14.2286,4.5357
2023-03-30,316.4,11.7,12.9214,4.0839
2023-03-31,316.9,8.0,12.4214,3.9197
2023-04-01,314.9,6.0,11.5429,3.6656
2023-04-02,313.7,5.5,11.1214,3.5452
2023-04-03,308.8,14.6,11.6071,3.7588
2023-04-04,310.8,4.5,11.0143,3.5438
2023-04-05,313.9,6.6,9.8071,3.1243
2023-04-06,312.3,4.6,9.1929,2.9436
2023-04-07,310.3,3.1,8.4786,2.7324
2023-04-08,310.5,2.6,8.2429,2.6547
2023-04-09,312.8,4.2,7.9857,2.553
2023-04-10,318.5,7.2,6.7929,2.1328
2023-04-11,322.3,15.2,7.2357,2.245
2023-04-12,319.9,6.6,7.1714,2.2418
2023-04-13,324.7,7.4,6.8643,2.114
2023-04-14,328.9,12.3,7.1714,2.1804
2023-04-15,333.0,9.1,7.3929,2.2201
2023-04-16,347.7,19.9,8.4214,2.422
2023-04-17,340.0,12.5,8.2714,2.4328
2023-04-18,343.1,9.7,8.6429,2.519
2023-04-19,322.4,23.6,9.8571,3.0574
2023-04-20,318.1,11.5,10.35,3.2537
2023-04-21,321.2,19.3,11.5071,3.5825
2023-04-22,332.2,13.2,12.2643,3.6918
2023-04-23,330.7,5.1,12.3286,3.728
2023-04-24,331.2,6.3,12.2643,3.703
2023-04-25,338.4,11.4,11.9929,3.544
2023-04-26,330.6,23.5,13.2,3.9927
2023-04-27,330.9,8.4,13.2714,4.0107
2023-04-28,324.1,12.2,13.2643,4.0927
2023-04-29,321.9,4.4,12.9286,4.0163
2023-04-30,337.5,17.9,12.7857,3.7884
2023-05-01,328.5,13.5,12.8571,3.9139
2023-05-02,321.5,7.1,12.6714,3.9413
2023-05-03,325.9,7.2,11.5,3.5287
2023-05-04,323.8,4.3,10.9857,3.3927
2023-05-05,326.5,6.3,10.0571,3.0803
2023-05-06,321.9,9.0,9.7571,3.0311
2023-05-07,321.0,5.0,9.75,3.0374
2023-05-08,313.8,11.0,10.0857,3.2141
2023-05-09,312.1,4.6,9.6,3.0759
2023-05-10,314.3,8.7,8.5429,2.7181
2023-05-11,307.5,10.1,8.6643,2.8177
2023-05-12,308.5,7.9,8.3571,2.709
2023-05-13,310.7,4.3,8.35,2.6875
2023-05-14,312.1,5.3,7.45,2.3871
2023-05-15,313.4,5.8,6.9,2.2017
2023-05-16,311.4,4.7,6.7286,2.1607
2023-05-17,314.3,7.4,6.7429,2.1454
2023-05-18,309.3,8.8,7.0643,2.284
2023-05-19,308.9,4.0,6.9,2.2337
2023-05-20,310.6,4.2,6.5571,2.1111
2023-05-21,306.4,5.9,6.6214,2.161
2023-05-22,309.0,6.7,6.3143,2.0435
2023-05-23,313.5,6.4,6.4429,2.0551
2023-05-24,306.0,10.0,6.5357,2.1359
2023-05-25,304.5,4.7,6.15,2.0197
2023-05-26,306.8,7.1,6.0929,1.9859
2023-05-27,307.4,3.7,6.05,1.9681
2023-05-28,314.1,7.9,6.2357,1.9853
2023-05-29,311.6,6.9,6.3143,2.0264
2023-05-30,311.5,3.4,6.2214,1.9972
2023-05-31,306.8,6.9,6.1857,2.0162
2023-06-01,304.9,4.6,5.8857,1.9304
2023-06-02,307.2,5.3,5.9786,1.9461
2023-06-03,306.6,5.2,6.05,1.9733
2023-06-04,305.0,3.1,5.85,1.918
2023-06-05,276.9,33.1,7.7357,2.7937
2023-06-06,281.2,12.6,8.1786,2.9085
2023-06-07,259.3,28.4,9.4929,3.661
2023-06-08,262.0,10.4,9.9,3.7786
2023-06-09,260.5,8.7,10.0143,3.8443
2023-06-10,238.7,32.3,12.0571,5.0512
2023-06-11,235.4,5.9,11.9143,5.0613
2023-06-12,231.3,18.9,12.7714,5.5216
2023-06-13,244.2,18.3,13.8357,5.6657
2023-06-14,237.9,19.9,14.7643,6.2061
2023-06-15,236.4,10.2,15.1643,6.4147
2023-06-16,239.3,11.6,15.6143,6.525
2023-06-17,244.5,12.6,16.1429,6.6024
2023-06-18,244.1,6.4,16.3786,6.7098
2023-06-19,243.1,6.7,14.4929,5.9617
2023-06-20,247.7,9.4,14.2643,5.7587
2023-06-21,248.8,9.7,12.9286,5.1964
2023-06-22,240.8,17.6,13.4429,5.5826
2023-06-23,244.3,10.1,13.5429,5.5435
2023-06-24,236.4,18.3,12.5429,5.3058
2023-06-25,238.8,9.0,12.7643,5.3452
2023-06-26,236.1,7.7,11.9643,5.0675
2023-06-27,237.5,6.3,11.1071,4.6767
2023-06-28,230.6,13.0,10.6143,4.6029
2023-06-29,233.1,6.3,10.3357,4.434
2023-06-30,240.3,11.0,10.2929,4.2833
2023-07-01,247.9,9.0,10.0357,4.0483
2023-07-02,246.5,5.6,9.9786,4.0481
2023-07-03,246.5,9.4,10.1714,4.1263
2023-07-04,242.5,6.5,9.9643,4.109
2023-07-05,238.9,8.1,9.85,4.1231
2023-07-06,232.2,13.0,9.5214,4.1005
2023-07-07,235.6,5.1,9.1643,3.8898
2023-07-08,236.3,3.4,8.1,3.4278
2023-07-09,234.1,4.1,7.75,3.3106
2023-07-10,246.2,15.7,8.3214,3.3799
2023-07-11,248.6,4.9,8.2214,3.3071
2023-07-12,243.9,7.9,7.8571,3.2215
2023-07-13,256.1,15.1,8.4857,3.3134
2023-07-14,248.1,18.3,9.0071,3.6304
2023-07-15,251.1,5.6,8.7643,3.4904
2023-07-16,242.3,10.1,9.0857,3.7498
2023-07-17,244.1,5.1,8.7786,3.5963
2023-07-18,240.2,9.2,8.9714,3.735
2023-07-19,240.8,4.5,8.7143,3.6189
2023-07-20,242.8,4.7,8.1214,3.3449
2023-07-21,243.7,3.4,8.0,3.2827
2023-07-22,241.1,4.8,8.1,3.3596
2023-07-23,242.5,3.6,8.0643,3.3255
2023-07-24,238.9,8.1,7.5214,3.1484
2023-07-25,237.7,3.6,7.4286,3.1252
2023-07-26,239.0,4.1,7.1571,2.9946
2023-07-27,240.6,6.1,6.5143,2.7075
2023-07-28,241.9,3.2,5.4357,2.2471
2023-07-29,242.4,1.8,5.1643,2.1305
2023-07-30,242.5,3.5,4.6929,1.9352
2023-07-31,241.0,4.0,4.6143,1.9146
2023-08-01,247.7,10.5,4.7071,1.9003
2023-08-02,240.7,13.1,5.3214,2.2108
2023-08-03,241.1,4.5,5.3071,2.2012
2023-08-04,241.7,3.2,5.2929,2.1898
2023-08-05,243.2,3.2,5.1786,2.1293
2023-08-06,243.2,2.7,5.1143,2.1029
2023-08-07,242.1,5.2,4.9071,2.0269
2023-08-08,245.2,6.5,5.1143,2.0858
2023-08-09,243.8,2.7,5.0143,2.0567
2023-08-10,241.5,3.6,4.8357,2.0024
2023-08-11,239.7,4.3,4.9143,2.0502
2023-08-12,240.3,2.1,4.9357,2.054
2023-08-13,240.2,2.0,4.8286,2.0102
2023-08-14,240.4,1.8,4.6714,1.9432
2023-08-15,236.7,6.8,4.4071,1.8619
2023-08-16,232.0,6.7,3.95,1.7026
2023-08-17,218.1,19.9,5.05,2.3155
2023-08-18,216.1,6.8,5.3071,2.4559
2023-08-19,216.8,5.6,5.4786,2.527
2023-08-20,216.5,2.6,5.4714,2.5272
2023-08-21,210.4,10.7,5.8643,2.7872
2023-08-22,210.9,9.6,6.0857,2.8856
2023-08-23,216.6,8.0,6.4643,2.9844
2023-08-24,219.0,5.6,6.6071,3.017
2023-08-25,218.4,5.9,6.7214,3.0776
2023-08-26,216.5,3.2,6.8,3.1409
2023-08-27,218.4,3.9,6.9357,3.1757
2023-08-28,218.8,4.4,7.1214,3.2548
2023-08-29,226.9,17.8,7.9071,3.4849
2023-08-30,223.8,5.6,7.8286,3.498
2023-08-31,216.7,11.6,7.2357,3.339
2023-09-01,213.7,7.2,7.2643,3.3993
2023-09-02,214.4,2.9,7.0714,3.2982
2023-09-03,214.4,2.0,7.0286,3.2783
2023-09-04,215.2,3.4,6.5071,3.0238
2023-09-05,214.6,2.6,6.0071,2.7992
2023-09-06,215.2,7.0,5.9357,2.7582
2023-09-07,217.1,4.3,5.8429,2.6913
2023-09-08,214.7,5.4,5.8071,2.7048
2023-09-09,214.1,1.3,5.6714,2.649
2023-09-10,212.4,3.2,5.6214,2.6466
2023-09-11,206.1,8.8,5.9357,2.88
2023-09-12,210.7,9.4,5.3357,2.5324
2023-09-13,212.5,4.0,5.2214,2.4571
2023-09-14,212.2,4.0,4.6786,2.2048
2023-09-15,214.1,4.1,4.4571,2.0818
2023-09-16,214.9,2.7,4.4429,2.0674
2023-09-17,216.5,3.5,4.55,2.1016
2023-09-18,216.0,6.4,4.7643,2.2057
2023-09-19,217.2,4.6,4.9071,2.2593
2023-09-20,214.4,4.5,4.7286,2.2055
2023-09-21,210.8,6.0,4.85,2.3008
2023-09-22,211.1,3.4,4.7071,2.2298
2023-09-23,210.5,1.8,4.7429,2.2531
2023-09-24,208.3,4.7,4.85,2.3284
2023-09-25,209.9,4.1,4.5143,2.1507
2023-09-26,212.6,4.0,4.1286,1.9419
2023-09-27,212.0,5.5,4.2357,1.998
2023-09-28,215.0,5.5,4.3429,2.0199
2023-09-29,215.2,3.3,4.2857,1.9915
2023-09-30,214.6,2.4,4.2643,1.9871
2023-10-01,218.2,6.3,4.4643,2.046
2023-10-02,214.6,8.5,4.6143,2.1502
2023-10-03,213.5,3.4,4.5286,2.1211
2023-10-04,213.4,3.0,4.4214,2.0719
2023-10-05,210.6,3.7,4.2571,2.0214
2023-10-06,213.4,4.5,4.3357,2.0317
2023-10-07,212.3,2.3,4.3714,2.0591
2023-10-08,211.4,4.0,4.3214,2.0442
2023-10-09,205.8,10.2,4.7571,2.3115
2023-10-10,208.6,7.6,5.0143,2.4038
2023-10-11,206.6,4.5,4.9429,2.3925
2023-10-12,205.1,4.5,4.8714,2.3751
2023-10-13,206.1,4.0,4.9214,2.3879
2023-10-14,206.5,1.4,4.85,2.3487
2023-10-15,209.7,6.7,4.8786,2.3265
2023-10-16,214.6,9.4,4.9429,2.3033
2023-10-17,211.4,6.0,5.1286,2.426
2023-10-18,210.2,4.0,5.2,2.4738
2023-10-19,211.2,3.3,5.1714,2.4486
2023-10-20,212.1,6.1,5.2857,2.4921
2023-10-21,214.2,4.4,5.4357,2.5377
2023-10-22,217.8,4.8,5.4929,2.522
2023-10-23,228.5,14.1,5.7714,2.5258
2023-10-24,225.2,16.9,6.4357,2.8578
2023-10-25,222.1,7.6,6.6571,2.9974
2023-10-26,223.2,8.9,6.9714,3.1234
2023-10-27,224.1,11.7,7.5214,3.3563
2023-10-28,225.7,4.3,7.7286,3.4243
2023-10-29,227.1,4.5,7.5714,3.334
2023-10-30,228.0,4.6,7.2286,3.1704
2023-10-31,226.2,5.4,7.1857,3.1767
2023-11-01,227.9,7.2,7.4143,3.2533
2023-11-02,231.9,6.2,7.6214,3.2865
2023-11-03,230.2,6.8,7.6714,3.3325
2023-11-04,237.1,9.4,8.0286,3.3862
2023-11-05,244.0,9.4,8.3571,3.4251
2023-11-06,255.1,14.6,8.3929,3.29
2023-11-07,246.2,13.5,8.15,3.3103
2023-11-08,246.7,4.3,7.9143,3.2081
2023-11-09,251.6,15.9,8.4143,3.3443
2023-11-10,251.0,9.9,8.2857,3.3011
2023-11-11,251.5,9.2,8.6357,3.4337
2023-11-12,247.4,7.5,8.85,3.5772
2023-11-13,241.1,9.9,9.2286,3.8277
2023-11-14,242.3,15.7,9.9643,4.1124
2023-11-15,253.7,12.4,10.3357,4.074
2023-11-16,242.7,16.0,11.0357,4.5471
2023-11-17,244.9,7.6,11.0929,4.5295
2023-11-18,244.8,6.7,10.9,4.4526
2023-11-19,246.4,5.1,10.5929,4.299
2023-11-20,253.1,29.8,11.6786,4.6142
2023-11-21,225.5,47.9,14.1357,6.2686
2023-11-22,236.1,13.9,14.8214,6.2776
2023-11-23,233.8,9.0,14.3286,6.1286
2023-11-24,232.7,5.1,13.9857,6.0102
2023-11-25,234.4,3.6,13.5857,5.796
2023-11-26,231.7,6.6,13.5214,5.8357
2023-11-27,227.2,10.4,13.5571,5.9671
2023-11-28,229.6,7.4,12.9643,5.6465
2023-11-29,227.3,5.1,12.4429,5.4742
2023-11-30,227.6,3.3,11.5357,5.0684
2023-12-01,228.5,3.0,11.2071,4.9047
2023-12-02,229.0,5.3,11.1071,4.8503
2023-12-03,228.1,6.0,11.1714,4.8976
2023-12-04,233.5,12.6,9.9429,4.2582
2023-12-05,231.2,7.0,7.0214,3.037
2023-12-06,229.4,6.2,6.4714,2.821
2023-12-07,232.6,6.5,6.2929,2.7054
2023-12-08,238.9,7.8,6.4857,2.7148
2023-12-09,237.7,9.2,6.8857,2.8968
2023-12-10,239.8,4.6,6.7429,2.8119
2023-12-11,246.4,20.2,7.4429,3.0206
2023-12-12,254.6,11.8,7.7571,3.0468
2023-12-13,252.0,11.8,8.2357,3.2681
2023-12-14,253.3,6.3,8.45,3.336
2023-12-15,244.9,10.8,9.0071,3.6779
2023-12-16,244.4,5.7,9.0357,3.6971
2023-12-17,238.8,5.7,9.0143,3.7748
2023-12-18,241.7,9.7,8.8071,3.6438
2023-12-19,252.9,13.5,9.2714,3.666
2023-12-20,260.3,11.8,9.6714,3.7155
2023-12-21,272.1,18.7,10.5429,3.8746
2023-12-22,271.1,11.6,10.8143,3.989
2023-12-23,271.0,6.4,10.6143,3.9167
2023-12-24,264.5,11.0,11.0714,4.1858
2023-12-25,266.9,6.7,10.1071,3.7869
2023-12-26,297.7,39.2,12.0643,4.0525
2023-12-27,324.1,39.3,14.0286,4.3285
2023-12-28,322.6,18.3,14.8857,4.6143
2023-12-29,313.7,18.6,15.4429,4.9228
2023-12-30,317.1,8.6,15.65,4.9354
2023-12-31,311.8,18.1,16.5357,5.3033
2024-01-01,313.5,9.0,16.4857,5.2586
2024-01-02,312.2,15.5,16.6286,5.3263
2024-01-03,315.8,40.7,18.6929,5.9192
2024-01-04,323.7,13.4,18.3143,5.6578
2024-01-05,317.5,18.7,18.8214,5.928
2024-01-06,307.5,17.4,19.6071,6.3763
2024-01-07,302.4,10.0,19.5357,6.4602
2024-01-08,303.7,18.1,20.35,6.7007
2024-01-09,301.1,11.1,18.3429,6.0919
2024-01-10,305.8,21.2,17.05,5.5755
2024-01-11,308.2,15.4,16.8429,5.4649
2024-01-12,296.6,23.9,17.2214,5.8063
2024-01-13,302.2,12.3,17.4857,5.7861
2024-01-14,299.5,8.0,16.7643,5.5974
2024-01-15,317.5,21.2,17.6357,5.5546
2024-01-16,315.2,6.4,16.9857,5.3889
2024-01-17,309.4,9.5,14.7571,4.7696
2024-01-18,313.0,9.9,14.5071,4.6349
2024-01-19,314.7,11.2,13.9714,4.4396
2024-01-20,317.2,5.1,13.0929,4.1276
2024-01-21,318.6,5.6,12.7786,4.0109
2024-01-22,305.9,16.7,12.6786,4.1447
2024-01-23,298.8,21.4,13.4143,4.4894
2024-01-24,293.1,10.4,12.6429,4.3135
2024-01-25,292.1,9.2,12.2,4.1767
2024-01-26,302.2,13.5,11.4571,3.7912
2024-01-27,305.6,5.8,10.9929,3.5971
2024-01-28,305.3,6.0,10.85,3.5539
2024-01-29,310.7,6.6,9.8071,3.1565
2024-01-30,307.6,6.8,9.8357,3.1976
2024-01-31,300.5,9.6,9.8429,3.2755
2024-02-01,300.2,5.8,9.55,3.1812
2024-02-02,301.4,5.4,9.1357,3.0311
2024-02-03,299.7,4.3,9.0786,3.0292
2024-02-04,304.7,9.7,9.3714,3.0756
2024-02-05,301.2,7.3,8.7,2.8884
2024-02-06,302.7,3.2,7.4,2.4447
2024-02-07,307.3,8.0,7.2286,2.3523
2024-02-08,319.2,13.3,7.5214,2.3563
2024-02-09,324.0,8.4,7.1571,2.209
2024-02-10,323.0,6.5,7.2071,2.2313
2024-02-11,320.7,4.8,7.1214,2.2206
2024-02-12,327.8,16.6,7.8357,2.3904
2024-02-13,324.7,10.6,8.1071,2.4968
2024-02-14,333.9,11.2,8.2214,2.4622
2024-02-15,354.2,33.3,10.1857,2.8757
2024-02-16,360.4,17.7,11.0643,3.07
2024-02-17,352.9,15.5,11.8643,3.3619
2024-02-18,349.8,9.0,11.8143,3.3774
2024-02-19,351.6,6.9,11.7857,3.352
2024-02-20,354.6,16.8,12.7571,3.5976
2024-02-21,379.2,28.4,14.2143,3.7485
2024-02-22,382.6,13.6,14.2357,3.7208
2024-02-23,375.5,16.8,14.8357,3.9509
2024-02-24,381.7,11.6,15.2,3.9822
2024-02-25,388.5,13.4,15.8143,4.0706
2024-02-26,401.6,22.9,16.2643,4.0499
2024-02-27,394.6,14.1,16.5143,4.1851
2024-02-28,414.6,33.2,18.0857,4.3622
2024-02-29,399.4,28.6,17.75,4.4442
2024-03-01,407.4,9.8,17.1857,4.2184
2024-03-02,410.9,9.0,16.7214,4.0695
2024-03-03,414.5,14.6,17.1214,4.1306
2024-03-04,418.4,13.2,17.5714,4.1997
2024-03-05,394.1,71.1,21.45,5.4428
2024-03-06,429.4,49.1,22.9286,5.3397
2024-03-07,474.6,53.6,25.7857,5.4331
2024-03-08,485.8,27.1,26.5214,5.4593
2024-03-09,488.3,13.1,26.6286,5.4533
2024-03-10,528.9,52.7,29.4357,5.5655
2024-03-11,523.0,28.3,29.8214,5.702
2024-03-12,537.5,29.5,30.9214,5.7528
2024-03-13,630.5,101.8,35.8214,5.6814
2024-03-14,603.2,66.0,38.4929,6.3814
2024-03-15,632.7,94.3,44.5286,7.0379
2024-03-16,576.4,78.0,49.4571,8.5804
2024-03-17,571.7,41.9,51.4071,8.992
2024-03-18,555.4,47.6,53.8643,9.6983
2024-03-19,507.7,64.8,53.4143,10.5208
2024-03-20,556.8,59.0,54.1214,9.7201
2024-03-21,553.8,30.4,52.4643,9.4735
2024-03-22,553.8,52.6,54.2857,9.8024
2024-03-23,551.9,24.3,55.0857,9.9811
2024-03-24,567.7,24.3,53.0571,9.346
2024-03-25,587.0,33.6,53.4357,9.1032
2024-03-26,580.4,25.1,53.1214,9.1526
2024-03-27,574.3,25.3,47.6571,8.2983
2024-03-28,583.4,17.6,44.2,7.5763
2024-03-29,612.5,37.9,40.1714,6.5586
2024-03-30,600.7,16.0,35.7429,5.9502
2024-03-31,606.7,8.4,33.35,5.497
2024-04-01,575.8,39.0,32.7357,5.6853
2024-04-02,551.4,31.9,30.3857,5.5106
2024-04-03,561.5,28.9,28.2357,5.0286
2024-04-04,585.5,36.8,28.6929,4.9006
2024-04-05,577.8,27.1,26.8714,4.6506
2024-04-06,585.4,16.2,26.2929,4.4914
2024-04-07,583.9,13.1,25.4929,4.366
2024-04-08,586.4,23.4,24.7643,4.2231
2024-04-09,580.5,19.1,24.3357,4.1922
2024-04-10,609.7,37.2,25.1857,4.1308
2024-04-11,604.6,26.4,25.8143,4.2696
2024-04-12,595.6,63.5,27.6429,4.6412
2024-04-13,553.1,92.2,33.0857,5.9819
2024-04-14,566.4,39.9,35.3357,6.2387
2024-04-15,552.7,40.8,35.4643,6.4166
2024-04-16,537.6,31.4,35.4286,6.5901
2024-04-17,534.1,35.3,35.8857,6.7189
2024-04-18,552.1,28.9,35.3214,6.3977
2024-04-19,554.0,40.3,36.2643,6.5459
2024-04-20,570.9,25.5,36.9286,6.4685
2024-04-21,579.6,16.3,37.1571,6.4108
2024-04-22,604.5,30.3,37.65,6.2283
2024-04-23,606.2,19.6,37.6857,6.2167
2024-04-24,608.8,25.9,36.8786,6.0576
2024-04-25,613.2,17.2,36.2214,5.907
2024-04-26,598.0,18.0,32.9714,5.5136
2024-04-27,596.2,14.7,27.4357,4.6018
2024-04-28,600.2,12.8,25.5,4.2486
2024-04-29,592.8,21.5,24.1214,4.0691
2024-04-30,578.4,48.6,25.35,4.3828
2024-05-01,561.8,43.7,25.95,4.6191
2024-05-02,560.5,26.4,25.7714,4.5979
2024-05-03,587.0,31.1,25.1143,4.2784
2024-05-04,585.7,11.1,24.0857,4.1123
2024-05-05,592.0,15.7,24.0429,4.0613
2024-05-06,588.2,19.2,23.25,3.9527
2024-05-07,576.5,24.4,23.5929,4.0924
2024-05-08,588.6,15.6,22.8571,3.8833
2024-05-09,596.8,19.5,23.0214,3.8575
2024-05-10,585.6,15.5,22.8429,3.9008
2024-05-11,592.2,13.7,22.7714,3.8452
2024-05-12,594.8,12.8,22.7714,3.8284
2024-05-13,591.7,13.2,22.1786,3.7483
2024-05-14,567.1,31.1,20.9286,3.6905
2024-05-15,581.0,27.3,19.7571,3.4005
2024-05-16,569.2,21.5,19.4071,3.4095
2024-05-17,580.9,15.9,18.3214,3.154
2024-05-18,580.3,7.7,18.0786,3.1154
2024-05-19,574.5,10.6,17.7143,3.0834
2024-05-20,599.6,33.2,18.7143,3.1211
2024-05-21,618.5,38.1,19.6929,3.184
2024-05-22,614.8,16.2,19.7357,3.2101
2024-05-23,599.3,37.5,21.0214,3.5077
2024-05-24,600.3,17.2,21.1429,3.522
2024-05-25,602.4,7.2,20.6786,3.4327
2024-05-26,600.2,7.4,20.2929,3.381
2024-05-27,603.9,14.8,20.4071,3.3792
2024-05-28,601.7,12.2,19.0571,3.1672
2024-05-29,595.7,10.5,17.8571,2.9977
2024-05-30,595.1,15.7,17.4429,2.9311
2024-05-31,593.7,9.0,16.95,2.855
2024-06-01,601.9,15.3,17.4929,2.9063
2024-06-02,602.9,10.0,17.45,2.8943
2024-06-03,626.4,37.6,17.7643,2.8359
2024-06-04,685.7,63.4,19.5714,2.8542
2024-06-05,698.8,31.3,20.65,2.9551
2024-06-06,711.2,29.8,20.1,2.8262
2024-06-07,684.0,53.1,22.6643,3.3135
2024-06-08,682.7,17.0,23.3643,3.4223
2024-06-09,673.0,14.5,23.8714,3.547
2024-06-10,625.1,61.5,27.2071,4.3524
2024-06-11,602.5,33.2,28.7071,4.7647
2024-06-12,619.4,44.1,31.1071,5.0221
2024-06-13,599.8,24.3,31.7214,5.2887
2024-06-14,603.3,22.5,32.6857,5.4178
2024-06-15,608.2,8.4,32.1929,5.2931
2024-06-16,610.8,10.7,32.2429,5.2788
2024-06-17,604.3,21.2,31.0714,5.1417
2024-06-18,588.6,30.2,28.7,4.876
2024-06-19,599.3,19.3,27.8429,4.6459
2024-06-20,587.7,23.4,27.3857,4.6598
2024-06-21,586.1,11.5,24.4143,4.1655
2024-06-22,591.1,10.4,23.9429,4.0506
2024-06-23,577.5,17.2,24.1357,4.1793
2024-06-24,568.1,30.8,21.9429,3.8625
2024-06-25,578.2,13.6,20.5429,3.5529
2024-06-26,573.0,17.3,18.6286,3.2511
2024-06-27,581.7,18.3,18.2,3.1288
2024-06-28,567.4,19.7,18.0,3.1724
2024-06-29,570.0,7.0,17.9,3.1404
2024-06-30,582.2,17.0,18.35,3.1518
2024-07-01,576.9,12.1,17.7,3.0681
2024-07-02,580.1,8.1,16.1214,2.7791
2024-07-03,556.7,30.5,16.9214,3.0396
2024-07-04,513.6,46.5,18.5714,3.6159
2024-07-05,497.7,61.3,22.1286,4.4462
2024-07-06,526.0,34.7,23.8643,4.5369
2024-07-07,490.7,38.2,25.3643,5.169
2024-07-08,510.6,53.2,26.9643,5.2809
2024-07-09,516.9,14.3,27.0143,5.2262
2024-07-10,524.7,18.1,27.0714,5.1594
2024-07-11,524.8,25.0,27.55,5.2496
2024-07-12,533.8,20.5,27.6071,5.1718
2024-07-13,532.4,12.1,27.9714,5.2538
2024-07-14,544.8,16.5,27.9357,5.1277
2024-07-15,585.3,43.0,30.1429,5.15
2024-07-16,576.2,33.1,31.9286,5.5412
2024-07-17,568.9,19.7,31.1571,5.4767
2024-07-18,571.9,18.0,29.1214,5.092
2024-07-19,593.4,33.7,27.15,4.5753
2024-07-20,593.1,11.2,25.4714,4.2946
2024-07-21,602.5,21.9,24.3071,4.0344
2024-07-22,587.2,25.3,22.3143,3.8001
2024-07-23,581.9,16.3,22.4571,3.8593
2024-07-24,574.9,18.7,22.5,3.9137
2024-07-25,570.6,23.5,22.3929,3.9244
2024-07-26,580.9,12.6,21.8286,3.7577
2024-07-27,581.6,20.2,22.4071,3.8527
2024-07-28,583.9,10.4,21.9714,3.7629
2024-07-29,574.3,25.8,20.7429,3.6119
2024-07-30,588.2,21.7,19.9286,3.3881
2024-07-31,576.5,18.2,19.8214,3.4382
2024-08-01,575.1,24.3,20.2714,3.5249
2024-08-02,542.9,37.4,20.5357,3.7826
2024-08-03,529.6,24.0,21.45,4.0502
2024-08-04,496.9,45.7,23.15,4.6589
2024-08-05,464.2,99.9,28.4786,6.135
2024-08-06,484.8,30.9,29.5214,6.0894
2024-08-07,475.0,29.6,30.3,6.3789
2024-08-08,517.1,54.2,32.4929,6.2837
2024-08-09,508.7,19.7,33.0,6.4871
2024-08-10,523.1,18.2,32.8571,6.2812
2024-08-11,503.4,33.5,34.5071,6.8548
2024-08-12,518.2,24.8,34.4357,6.6453
2024-08-13,524.2,13.9,33.8786,6.4629
2024-08-14,523.4,16.5,33.7571,6.4496
2024-08-15,519.2,23.9,33.7286,6.4963
2024-08-16,519.7,14.6,32.1,6.1766
2024-08-17,541.6,29.4,32.4857,5.9981
2024-08-18,531.2,11.8,30.0643,5.6597
2024-08-19,558.4,31.6,25.1857,4.5103
2024-08-20,569.4,16.7,24.1714,4.2451
2024-08-21,570.1,29.0,24.1286,4.2323
2024-08-22,582.9,30.3,22.4214,3.8465
2024-08-23,591.7,26.3,22.8929,3.869
2024-08-24,580.5,17.8,22.8643,3.9387
2024-08-25,573.9,14.9,21.5357,3.7525
2024-08-26,548.2,28.9,21.8286,3.9819
2024-08-27,533.3,37.8,23.5357,4.4132
2024-08-28,537.0,24.4,24.1,4.4879
2024-08-29,536.4,14.6,23.4357,4.3691
2024-08-30,535.2,21.4,23.9214,4.4696
2024-08-31,532.9,10.4,22.5643,4.2342
2024-09-01,512.4,25.5,23.5429,4.5946
2024-09-02,526.3,28.7,23.3357,4.4339
2024-09-03,518.7,20.5,23.6071,4.5512
2024-09-04,507.6,27.9,23.5286,4.6353
2024-09-05,502.4,16.2,22.5214,4.4828
2024-09-06,487.2,38.6,23.4,4.803
2024-09-07,493.5,16.6,23.3143,4.7243
2024-09-08,503.1,16.2,23.4071,4.6526
2024-09-09,518.7,24.0,23.0571,4.4452
2024-09-10,517.0,15.1,21.4357,4.1462
2024-09-11,530.1,28.9,21.7571,4.1043
2024-09-12,544.5,18.7,22.05,4.0496
2024-09-13,556.4,21.0,22.0214,3.9578
2024-09-14,553.3,11.7,22.1143,3.9968
2024-09-15,553.4,15.9,21.4286,3.8722
2024-09-16,533.7,28.2,21.3929,4.0084
2024-09-17,546.2,23.7,21.6214,3.9585
2024-09-18,559.5,22.9,21.2643,3.8006
2024-09-19,567.0,19.2,21.4786,3.7881
2024-09-20,569.0,22.1,20.3,3.5677
2024-09-21,588.6,23.6,20.8,3.5338
2024-09-22,588.7,18.2,20.9429,3.5575
2024-09-23,604.5,32.6,21.5571,3.5661
2024-09-24,605.9,14.9,21.5429,3.5555
2024-09-25,587.4,24.1,21.2,3.6091
2024-09-26,596.3,28.2,21.8786,3.6691
2024-09-27,606.8,18.7,21.7143,3.5785
2024-09-28,601.1,24.1,22.6,3.7598
2024-09-29,595.6,10.4,22.2071,3.7285
2024-09-30,567.4,32.3,22.5,3.9655
2024-10-01,547.3,46.3,24.1143,4.406
2024-10-02,542.5,22.9,24.1143,4.445
2024-10-03,544.8,16.5,23.9214,4.3909
2024-10-04,555.3,16.0,23.4857,4.2294
2024-10-05,563.0,13.6,22.7714,4.0447
2024-10-06,570.3,10.8,22.2429,3.9002
2024-10-07,564.3,18.3,21.2214,3.7607
2024-10-08,580.8,27.3,22.1071,3.8063
2024-10-09,570.7,19.8,21.8,3.8199
2024-10-10,563.9,21.4,21.3143,3.7798
2024-10-11,573.6,17.4,21.2214,3.6997
2024-10-12,576.6,5.6,19.9,3.4513
2024-10-13,572.2,13.6,20.1286,3.5178
2024-10-14,589.1,33.4,20.2071,3.4302
2024-10-15,594.5,22.2,18.4857,3.1095
2024-10-16,600.9,15.8,17.9786,2.9919
2024-10-17,592.9,21.2,18.3143,3.0889
2024-10-18,599.2,10.6,17.9286,2.9921
2024-10-19,597.7,6.0,17.3857,2.9088
2024-10-20,605.9,14.2,17.6286,2.9095
2024-10-21,598.8,20.3,17.7714,2.9678
2024-10-22,593.8,22.0,17.3929,2.9291
2024-10-23,584.9,22.0,17.55,3.0005
2024-10-24,594.5,14.7,17.0714,2.8716
2024-10-25,575.3,31.8,18.1,3.1462
2024-10-26,583.4,15.5,18.8071,3.2237
2024-10-27,589.2,9.3,18.5,3.1399
2024-10-28,601.1,19.1,17.4786,2.9078
2024-10-29,606.3,12.3,16.7714,2.7662
2024-10-30,595.6,12.6,16.5429,2.7775
2024-10-31,576.6,25.4,16.8429,2.9211
2024-11-01,573.1,17.8,17.3571,3.0286
2024-11-02,568.6,14.8,17.9857,3.1632
2024-11-03,557.7,22.3,18.5643,3.3287
2024-11-04,552.5,21.2,18.6286,3.3717
2024-11-05,563.21,21.58,18.5986,3.3022
2024-11-06,592.22,32.0,19.3129,3.2611
2024-11-07,598.26,24.19,19.9907,3.3415
2024-11-08,597.82,17.8,18.9907,3.1767
2024-11-09,624.66,40.49,20.7757,3.3259
2024-11-10,627.33,32.58,22.4386,3.5768
2024-11-11,659.63,52.54,24.8271,3.7638
2024-11-12,625.33,57.4,28.0486,4.4854
2024-11-13,620.68,39.46,29.9671,4.8281
2024-11-14,622.3,49.9,31.7171,5.0968
2024-11-15,619.37,24.9,32.2243,5.2028
2024-11-16,622.69,16.2,32.3243,5.1911
2024-11-17,618.9,42.4,33.76,5.4548
2024-11-18,618.93,18.81,33.5893,5.427
2024-11-19,615.5,16.2,33.205,5.3948
2024-11-20,605.39,20.78,32.4036,5.3525
2024-11-21,621.86,36.32,33.27,5.3501
2024-11-22,633.0,24.59,33.755,5.3325
2024-11-23,650.42,48.9,34.3557,5.2821
2024-11-24,659.65,50.67,35.6479,5.4041
2024-11-25,636.2,50.36,35.4921,5.5788
2024-11-26,613.51,45.55,34.6457,5.6471
2024-11-27,644.14,38.96,34.61,5.3731
2024-11-28,653.83,24.89,32.8236,5.0202
2024-11-29,654.67,15.38,32.1436,4.9099
2024-11-30,653.43,29.2,33.0721,5.0613
2024-12-01,655.99,19.01,31.4014,4.7869
2024-12-02,647.82,39.21,32.8586,5.0722
2024-12-03,734.64,127.16,40.7843,5.5516
2024-12-04,739.53,73.86,44.5757,6.0276
2024-12-05,717.1,49.9,45.5457,6.3514
2024-12-06,730.22,40.87,46.7086,6.3965
2024-12-07,749.72,31.31,45.4521,6.0625
2024-12-08,742.0,29.79,43.9607,5.9246
2024-12-09,689.19,100.5,47.5421,6.8983
2024-12-10,676.8,55.79,48.2736,7.1326
2024-12-11,711.21,54.46,49.3807,6.9432
2024-12-12,705.77,26.25,49.4779,7.0105
2024-12-13,725.72,33.08,50.7421,6.992
2024-12-14,715.79,27.1,50.5921,7.068
2024-12-15,718.87,21.42,50.7643,7.0617
2024-12-16,720.58,25.84,49.8093,6.9124
2024-12-17,717.69,25.13,42.5214,5.9248
2024-12-18,686.38,41.0,40.1743,5.8531
2024-12-19,665.62,56.94,40.6771,6.1112
2024-12-20,678.6,61.89,42.1786,6.2155
2024-12-21,663.49,41.39,42.8986,6.4656
2024-12-22,649.77,30.34,42.9379,6.6082
2024-12-23,694.16,60.4,40.0736,5.773
2024-12-24,696.9,16.32,37.2543,5.3457
2024-12-25,702.72,17.34,34.6029,4.9241
2024-12-26,689.4,36.99,35.37,5.1305
2024-12-27,691.85,33.15,35.375,5.1131
2024-12-28,722.13,39.94,36.2921,5.0257
2024-12-29,694.71,34.7,37.2407,5.3606
2024-12-30,705.36,24.45,37.1414,5.2656
2024-12-31,702.3,16.51,36.5257,5.2009
2025-01-01,707.84,11.2,34.3971,4.8595
2025-01-02,706.25,17.76,31.5986,4.4741
2025-01-03,714.88,18.66,28.5107,3.9882
2025-01-04,713.41,14.02,26.5557,3.7224
2025-01-05,709.29,11.42,25.2043,3.5535
2025-01-06,729.42,39.38,23.7029,3.2495
2025-01-07,698.01,42.13,25.5464,3.6599
2025-01-08,696.03,32.74,26.6464,3.8283
2025-01-09,685.48,26.6,25.9043,3.779
2025-01-10,693.21,17.51,24.7871,3.5757
2025-01-11,696.7,11.08,22.7257,3.2619
2025-01-12,693.34,8.83,20.8779,3.0112
2025-01-13,688.64,40.0,21.9886,3.193
2025-01-14,698.89,13.67,21.7857,3.1172
2025-01-15,714.59,26.55,22.8821,3.2021
2025-01-16,708.1,17.0,22.8279,3.2238
2025-01-17,721.76,21.87,23.0571,3.1946
2025-01-18,709.52,28.32,24.0786,3.3936
2025-01-19,683.19,38.6,26.02,3.8086
2025-01-20,682.51,38.38,25.9486,3.8019
2025-01-21,692.21,21.99,24.51,3.5408
2025-01-22,695.52,14.2,23.1857,3.3336
2025-01-23,689.74,17.39,22.5279,3.2661
2025-01-24,680.45,12.56,22.1743,3.2588
2025-01-25,686.4,11.88,22.2314,3.2388
2025-01-26,667.37,26.18,23.4707,3.5169
2025-01-27,679.74,42.74,23.6664,3.4817
2025-01-28,661.29,23.48,24.3671,3.6848
2025-01-29,667.97,20.64,23.945,3.5847
2025-01-30,677.53,16.99,23.9443,3.5341
2025-01-31,677.47,15.94,23.5207,3.4718
2025-02-01,652.94,30.83,23.7,3.6297
2025-02-02,617.8,63.22,25.4586,4.1208
2025-02-03,617.21,119.19,31.2307,5.06
2025-02-04,572.69,61.36,34.0429,5.9444
2025-02-05,569.55,18.78,34.37,6.0346
2025-02-06,571.72,21.12,34.6364,6.0583
2025-02-07,577.71,19.32,35.1193,6.0791
2025-02-08,612.39,60.11,38.5643,6.2973
2025-02-09,615.81,45.73,39.9607,6.4891
2025-02-10,618.65,26.18,38.7779,6.2681
2025-02-11,642.11,31.86,39.3764,6.1323
2025-02-12,696.93,78.6,43.5164,6.244
2025-02-13,664.72,73.72,47.5686,7.1562
2025-02-14,659.71,32.86,48.7771,7.3937
2025-02-15,662.21,17.97,47.8586,7.2271
2025-02-16,673.1,32.93,45.695,6.7887
2025-02-17,667.51,24.3,38.9171,5.8302
2025-02-18,648.18,38.65,37.295,5.7538
2025-02-19,653.38,27.45,37.9143,5.8028
2025-02-20,656.36,13.15,37.345,5.6897
2025-02-21,647.47,33.5,38.3579,5.9243
2025-02-22,668.57,34.69,36.5421,5.4657
2025-02-23,658.42,22.61,34.8907,5.2992
2025-02-24,614.2,48.96,36.5179,5.9456
2025-02-25,623.49,42.7,37.2921,5.9812
2025-02-26,611.57,38.07,34.3971,5.6244
2025-02-27,605.41,23.93,30.8407,5.0942
2025-02-28,588.07,46.62,31.8236,5.4115
2025-03-01,607.93,23.08,32.1886,5.2948
2025-03-02,623.94,33.51,32.23,5.1656
2025-03-03,576.1,56.86,34.5557,5.9982
2025-03-04,584.01,41.92,34.7893,5.957
2025-03-05,598.24,25.49,34.6493,5.7919
2025-03-06,596.5,23.7,35.4029,5.9351
2025-03-07,594.77,32.97,35.365,5.946
2025-03-08,593.1,12.66,33.7914,5.6974
2025-03-09,554.65,42.9,35.2407,6.3537
2025-03-10,531.49,50.39,35.3429,6.6498
2025-03-11,551.61,59.0,36.5071,6.6183
2025-03-12,569.87,30.32,35.9536,6.3091
2025-03-13,579.8,45.72,37.51,6.4695
2025-03-14,587.76,13.2,35.1229,5.9757
2025-03-15,619.83,32.47,35.7936,5.7747
2025-03-16,602.2,29.74,35.5243,5.8991
2025-03-17,631.69,41.68,34.44,5.452
2025-03-18,627.81,23.05,33.0921,5.271
2025-03-19,618.7,23.84,32.9743,5.3296
2025-03-20,630.47,21.2,32.7957,5.2018
2025-03-21,635.17,12.88,31.3607,4.9374
2025-03-22,627.01,12.31,31.3357,4.9976
2025-03-23,623.79,9.64,28.96,4.6426
2025-03-24,637.08,21.5,26.8964,4.2218
2025-03-25,629.82,17.83,23.9557,3.8036
2025-03-26,617.99,18.71,23.1264,3.7422
2025-03-27,637.36,25.3,21.6679,3.3996
2025-03-28,619.81,21.51,22.2614,3.5917
2025-03-29,602.99,26.87,21.8614,3.6255
2025-03-30,602.2,19.79,21.1507,3.5122
2025-03-31,604.81,21.63,19.7186,3.2603
2025-04-01,611.13,14.08,19.0779,3.1217
2025-04-02,590.68,29.15,19.4571,3.294
2025-04-03,592.67,32.12,20.2371,3.4146
2025-04-04,597.71,15.0,20.3886,3.4111
2025-04-05,593.13,10.29,20.2443,3.4131
2025-04-06,555.54,49.61,23.0993,4.158
2025-04-07,554.6,47.6,24.9636,4.5012
2025-04-08,553.72,18.36,25.0014,4.5152
2025-04-09,582.32,51.67,27.3557,4.6977
2025-04-10,578.03,17.41,26.7921,4.6351
2025-04-11,585.93,14.66,26.3029,4.4891
2025-04-12,597.29,16.48,25.5607,4.2794
2025-04-13,584.28,18.35,25.4579,4.3571
2025-04-14,584.54,9.96,24.6243,4.2126
2025-04-15,579.52,11.46,24.4371,4.2168
2025-04-16,582.8,11.0,23.1407,3.9706
2025-04-17,590.49,11.97,21.7014,3.6752
2025-04-18,591.71,9.0,21.2729,3.5951
2025-04-19,591.73,6.79,21.0229,3.5528
2025-04-20,592.77,7.73,18.0314,3.0419
2025-04-21,597.34,15.99,15.7736,2.6406
2025-04-22,618.51,24.9,16.2407,2.6258
2025-04-23,605.71,18.61,13.8793,2.2914
2025-04-24,601.55,14.19,13.6493,2.269
2025-04-25,599.91,13.15,13.5414,2.2572
2025-04-26,607.23,9.91,13.0721,2.1527
2025-04-27,603.46,11.68,12.5957,2.0872
2025-04-28,606.16,10.07,12.6036,2.0792
2025-04-29,601.0,12.65,12.6886,2.1112
2025-04-30,599.88,13.02,12.8329,2.1392
2025-05-01,599.63,7.14,12.4879,2.0826
2025-05-02,600.69,8.49,12.4514,2.0729
2025-05-03,599.36,5.97,12.3929,2.0677
2025-05-04,586.03,15.79,12.9686,2.213
2025-05-05,597.61,16.43,13.0,2.1753
2025-05-06,602.57,9.95,11.9321,1.9802
2025-05-07,602.7,11.18,11.4014,1.8917
2025-05-08,629.17,28.53,12.4257,1.9749
2025-05-09,666.29,48.03,14.9171,2.2388
2025-05-10,663.9,30.12,16.3607,2.4643
2025-05-11,651.15,20.66,17.0021,2.6111
2025-05-12,660.07,45.69,19.5464,2.9613
2025-05-13,664.13,31.34,20.8814,3.1442
2025-05-14,652.47,20.18,21.3929,3.2787
2025-05-15,651.88,18.71,22.2193,3.4085
2025-05-16,646.76,15.97,22.7536,3.5181
2025-05-17,639.51,11.85,23.1736,3.6236
2025-05-18,651.53,20.8,23.5314,3.6117
2025-05-19,649.62,20.02,23.7879,3.6618
2025-05-20,650.0,13.61,24.0493,3.6999
2025-05-21,673.31,29.51,25.3586,3.7663
2025-05-22,686.57,17.02,24.5364,3.5738
2025-05-23,656.98,39.16,23.9029,3.6383
2025-05-24,668.01,22.07,23.3279,3.4921
2025-05-25,669.44,14.57,22.8929,3.4197
2025-05-26,674.29,10.11,20.3514,3.0182
2025-05-27,686.91,31.17,20.3393,2.961
2025-05-28,686.89,9.18,19.5536,2.8467
2025-05-29,675.02,17.91,19.4964,2.8883
2025-05-30,655.36,25.28,20.1614,3.0764
2025-05-31,658.01,16.38,20.485,3.1132
2025-06-01,660.77,14.9,20.0636,3.0364
2025-06-02,665.93,16.95,19.8443,2.9799
2025-06-03,661.59,16.32,20.0379,3.0287
2025-06-04,663.23,10.92,18.71,2.821
2025-06-05,633.32,45.48,20.7429,3.2753
2025-06-06,642.7,22.13,19.5264,3.0382
2025-06-07,650.82,14.12,18.9586,2.913
2025-06-08,652.0,9.9,18.625,2.8566
2025-06-09,665.58,19.73,19.3121,2.9016
2025-06-10,673.51,16.74,18.2814,2.7144
2025-06-11,667.43,12.6,18.5257,2.7757
2025-06-12,654.75,18.02,18.5336,2.8306
2025-06-13,655.35,20.41,18.1857,2.775
2025-06-14,645.61,16.36,18.1843,2.8166
2025-06-15,648.19,9.23,17.7793,2.7429
2025-06-16,650.74,13.2,17.5114,2.691
2025-06-17,648.08,18.89,17.695,2.7304
2025-06-18,644.77,16.96,18.1264,2.8113
2025-06-19,644.65,7.84,15.4379,2.3948
2025-06-20,641.61,13.02,14.7871,2.3047
2025-06-21,628.97,22.9,15.4143,2.4507
2025-06-22,615.81,34.26,17.1543,2.7856
2025-06-23,640.49,27.74,17.7264,2.7676
2025-06-24,643.53,7.92,17.0964,2.6567
2025-06-25,646.07,10.79,16.9671,2.6262
2025-06-26,642.3,8.88,16.3143,2.54
2025-06-27,645.71,9.28,15.5193,2.4034
2025-06-28,648.6,4.93,14.7029,2.2669
2025-06-29,654.9,9.28,14.7064,2.2456
2025-06-30,656.9,8.83,14.3943,2.1912
2025-07-01,646.33,15.1,14.1236,2.1852
2025-07-02,659.71,21.14,14.4221,2.1861
2025-07-03,663.59,7.87,14.4243,2.1737
2025-07-04,653.6,13.96,14.4914,2.2172
2025-07-05,656.16,4.75,13.195,2.0109
2025-07-06,663.13,11.45,11.5657,1.7441
2025-07-07,661.06,6.73,10.065,1.5226
2025-07-08,660.63,5.24,9.8736,1.4946
2025-07-09,668.68,12.45,9.9921,1.4943
2025-07-10,685.8,20.45,10.8186,1.5775
2025-07-11,689.99,14.41,11.185,1.621
2025-07-12,685.86,17.37,12.0736,1.7604
2025-07-13,692.0,9.0,12.0536,1.7418
2025-07-14,689.12,21.49,12.9579,1.8803
2025-07-15,689.92,17.91,13.1586,1.9073
2025-07-16,708.61,30.36,13.8171,1.9499
2025-07-17,720.65,21.71,14.8057,2.0545
2025-07-18,729.92,46.83,17.1536,2.3501
2025-07-19,733.2,23.74,18.51,2.5245
2025-07-20,756.82,29.79,19.82,2.6189
2025-07-21,766.22,35.93,21.9057,2.8589
2025-07-22,786.68,43.35,24.6279,3.1306
2025-07-23,776.74,57.37,27.8364,3.5838
2025-07-24,770.74,43.54,29.4857,3.8256
2025-07-25,785.45,33.78,30.8693,3.9301
2025-07-26,793.29,19.72,31.0371,3.9125
2025-07-27,844.0,56.08,34.4,4.0758
2025-07-28,824.07,40.46,35.755,4.3388
2025-07-29,805.1,34.94,36.9714,4.5922
2025-07-30,793.51,45.43,38.0479,4.7949
2025-07-31,783.14,33.42,38.8843,4.9652
2025-08-01,757.08,50.71,39.1614,5.1727
2025-08-02,736.42,37.75,40.1621,5.4537
2025-08-03,751.21,25.52,39.8571,5.3057
2025-08-04,768.63,19.53,38.6857,5.0331
2025-08-05,755.13,24.68,37.3521,4.9465
2025-08-06,769.55,28.58,35.2957,4.5865
2025-08-07,788.67,24.51,33.9364,4.303
2025-08-08,793.5,17.76,32.7921,4.1326
2025-08-09,798.83,26.63,33.2857,4.1668
2025-08-10,807.22,21.82,30.8386,3.8203
2025-08-11,805.09,35.59,30.4907,3.7872
2025-08-12,832.47,42.17,31.0071,3.7247
2025-08-13,848.01,30.66,29.9521,3.5321
2025-08-14,840.42,48.8,31.0507,3.6947
2025-08-15,827.81,40.96,30.3543,3.6668
2025-08-16,838.71,14.73,28.71,3.4231
2025-08-17,855.38,25.96,28.7414,3.3601
2025-08-18,846.99,33.51,29.74,3.5113
2025-08-19,824.11,28.95,30.045,3.6458
2025-08-20,869.05,62.45,32.4643,3.7356
2025-08-21,839.49,50.4,34.3136,4.0874
2025-08-22,900.21,61.48,37.4364,4.1586
2025-08-23,880.42,24.66,37.2957,4.2361
2025-08-24,876.51,27.32,37.6886,4.2998
2025-08-25,839.32,47.99,38.5743,4.5959
2025-08-26,863.7,38.41,38.3057,4.4351
2025-08-27,855.18,14.2,37.13,4.3418
2025-08-28,873.47,30.51,35.8236,4.1013
2025-08-29,862.3,27.81,34.8843,4.0455
2025-08-30,862.0,12.39,34.7171,4.0275
2025-08-31,857.65,10.7,33.6271,3.9208
2025-09-01,845.68,29.15,33.3157,3.9395
2025-09-02,851.8,15.97,32.3886,3.8024
2025-09-03,854.76,15.15,29.01,3.3939
2025-09-04,843.63,15.62,26.5257,3.1442
2025-09-05,850.14,15.51,23.2421,2.7339
2025-09-06,860.85,15.45,22.5843,2.6235
2025-09-07,880.05,23.5,22.3114,2.5352
2025-09-08,878.08,15.84,20.015,2.2794
2025-09-09,880.01,13.45,18.2321,2.0718
2025-09-10,893.77,30.34,19.385,2.1689
2025-09-11,902.77,16.15,18.3593,2.0337
2025-09-12,924.8,28.49,18.4079,1.9905
2025-09-13,933.68,21.75,19.0764,2.0431
2025-09-14,926.51,23.04,19.9579,2.1541
2025-09-15,919.68,25.08,19.6671,2.1385
2025-09-16,955.65,42.34,21.5507,2.2551
2025-09-17,989.98,49.34,23.9929,2.4236
2025-09-18,981.04,27.4,24.8343,2.5314
2025-09-19,984.1,29.09,25.8043,2.6221
2025-09-20,1043.77,65.1,29.3507,2.812
2025-09-21,1047.8,44.27,30.8343,2.9428
2025-09-22,992.9,73.66,34.9643,3.5214
2025-09-23,1015.98,64.99,38.6457,3.8038
2025-09-24,1018.49,43.04,39.5529,3.8835
2025-09-25,945.9,80.35,44.1386,4.6663
2025-09-26,960.8,34.22,44.5479,4.6365
2025-09-27,968.45,30.23,45.1536,4.6625
2025-09-28,993.01,30.97,45.72,4.6042
2025-09-29,1029.79,44.88,47.1343,4.5771
2025-09-30,1008.51,41.08,47.0443,4.6647
2025-10-01,1026.5,32.85,45.8664,4.4682
2025-10-02,1090.22,77.21,49.4243,4.5334
2025-10-03,1189.4,108.58,55.1021,4.6328
2025-10-04,1150.75,55.54,54.4193,4.729
2025-10-05,1167.38,45.86,54.5329,4.6714
2025-10-06,1223.19,78.09,54.8493,4.4841
2025-10-07,1304.43,145.38,60.5914,4.6451
2025-10-08,1307.4,69.87,62.5079,4.7811
2025-10-09,1255.35,95.62,63.5986,5.0662
2025-10-10,1102.47,418.41,91.0407,8.2579
2025-10-11,1135.07,109.76,96.7214,8.5212
2025-10-12,1302.65,212.37,109.6786,8.4197
2025-10-13,1294.55,123.83,115.3179,8.9079
2025-10-14,1208.52,175.25,124.9014,10.3351
2025-10-15,1162.57,73.84,127.8293,10.9954
2025-10-16,1144.83,72.69,127.5064,11.1376
2025-10-17,1071.15,135.3,129.415,12.0819
2025-10-18,1092.43,61.64,129.8507,11.8864
2025-10-19,1109.88,65.72,131.2693,11.8273
2025-10-20,1100.19,55.01,129.6207,11.7817
2025-10-21,1057.16,62.07,123.67,11.6983
2025-10-22,1071.82,30.55,120.8614,11.2763
2025-10-23,1126.72,90.08,120.4657,10.6917
2025-10-24,1109.01,46.78,93.9207,8.4689
2025-10-25,1116.53,19.93,87.5043,7.8372
2025-10-26,1138.19,28.87,74.3971,6.5364
2025-10-27,1138.88,51.16,69.2064,6.0767
2025-10-28,1103.45,74.94,62.0414,5.6225
2025-10-29,1107.7,38.76,59.5357,5.3747
2025-10-30,1079.05,86.07,60.4914,5.606
2025-10-31,1088.9,33.5,53.22,4.8875
2025-11-01,1094.53,15.13,49.8979,4.5588
2025-11-02,1083.25,23.18,46.8593,4.3258
2025-11-03,993.54,127.06,52.0057,5.2344
2025-11-04,936.77,121.32,56.2379,6.0034
2025-11-05,959.33,68.88,58.9757,6.1476
2025-11-06,950.4,40.16,55.41,5.8302
2025-11-07,991.15,69.9,57.0614,5.7571
2025-11-08,991.03,27.36,57.5921,5.8113
2025-11-09,996.63,31.32,57.7671,5.7962
2025-11-10,991.98,43.34,57.2086,5.7671
2025-11-11,958.08,52.52,55.6071,5.804
2025-11-12,952.86,40.71,55.7464,5.8504
2025-11-13,927.15,66.48,54.3471,5.8617
2025-11-14,915.25,46.16,55.2514,6.0368
2025-11-15,932.28,30.31,56.3357,6.0428
2025-11-16,926.56,41.61,57.6521,6.2222
2025-11-17,907.36,47.83,51.9929,5.7301
2025-11-18,932.79,55.59,47.2979,5.0706
2025-11-19,897.77,68.68,47.2836,5.2668
2025-11-20,866.51,51.43,48.0886,5.5497
2025-11-21,830.46,86.54,49.2771,5.9337
2025-11-22,833.78,29.16,49.4057,5.9255
2025-11-23,843.6,22.18,48.7529,5.7791
2025-11-24,864.92,46.29,48.9636,5.6611
2025-11-25,862.57,30.19,47.3686,5.4916
2025-11-26,891.78,45.53,47.7129,5.3503
2025-11-27,895.74,21.06,44.4686,4.9645
2025-11-28,887.19,30.35,43.3393,4.885
2025-11-29,872.9,20.75,42.6564,4.8867
2025-11-30,875.31,30.19,41.8407,4.7801
2025-12-01,826.61,75.42,43.8114,5.3001
2025-12-02,876.61,64.54,44.4507,5.0708
2025-12-03,920.76,49.03,43.0471,4.6752
2025-12-04,899.92,41.45,42.3343,4.7042
2025-12-05,883.57,37.74,38.8486,4.3968
2025-12-06,890.38,19.89,38.1864,4.2888
2025-12-07,894.37,35.77,39.1571,4.3782
2025-12-08,897.12,24.36,37.5907,4.1902
2025-12-09,897.3,46.22,38.7357,4.3169
2025-12-10,893.43,30.73,37.6786,4.2173
2025-12-11,885.91,35.16,38.6857,4.3668
2025-12-12,881.58,25.49,38.3386,4.3488
2025-12-13,896.82,23.9,38.5636,4.3
2025-12-14,877.27,29.39,38.5064,4.3893
2025-12-15,858.6,54.67,37.0243,4.3122
2025-12-16,875.63,31.44,34.66,3.9583
2025-12-17,843.07,42.77,34.2129,4.0581
2025-12-18,830.07,35.1,33.7593,4.067
2025-12-19,856.17,39.95,33.9171,3.9615
2025-12-20,854.17,8.8,33.125,3.878
2025-12-21,858.64,14.41,31.5993,3.6802
2025-12-22,858.66,20.15,31.2986,3.645
2025-12-23,844.3,23.22,29.6557,3.5125
2025-12-24,846.58,14.79,28.5171,3.3685
2025-12-25,829.64,21.18,27.5186,3.3169
2025-12-26,834.72,25.95,27.5514,3.3007
2025-12-27,845.04,12.54,26.74,3.1643
2025-12-28,859.32,28.02,26.6421,3.1004
2025-12-29,852.46,26.12,24.6029,2.8861
2025-12-30,861.65,15.35,23.4536,2.7219
2025-12-31,864.3,19.6,21.7986,2.5221
2026-01-01,864.39,18.37,20.6036,2.3836
2026-01-02,881.25,31.5,20.0,2.2695
2026-01-03,878.63,15.59,20.485,2.3315
2026-01-04,895.43,24.38,21.1971,2.3673
2026-01-05,910.31,25.96,21.6121,2.3742
2026-01-06,917.64,32.27,22.2586,2.4256
2026-01-07,900.3,27.63,23.1757,2.5742
2026-01-08,892.26,29.9,23.7986,2.6672
2026-01-09,896.86,15.78,23.0721,2.5725
2026-01-10,907.93,19.1,23.5407,2.5928
2026-01-11,904.32,18.58,22.8664,2.5286
2026-01-12,905.78,16.81,22.2014,2.4511
2026-01-13,943.73,50.71,24.7271,2.6202
2026-01-14,948.47,26.18,25.1971,2.6566
2026-01-15,931.2,24.8,25.6564,2.7552
2026-01-16,938.16,15.74,24.5307,2.6148
2026-01-17,947.12,24.02,25.1329,2.6536
2026-01-18,932.51,21.63,24.9364,2.6741
2026-01-19,923.6,31.51,25.3329,2.7428
2026-01-20,884.2,49.13,26.5371,3.0013
2026-01-21,883.36,29.15,26.6457,3.0164
2026-01-22,888.06,19.4,25.8957,2.916
2026-01-23,891.63,21.89,26.3321,2.9533
2026-01-24,887.17,7.71,25.5186,2.8764
2026-01-25,866.02,31.75,26.4593,3.0553
2026-01-26,879.41,16.53,26.4393,3.0065
2026-01-27,898.36,25.02,24.6043,2.7388
2026-01-28,902.91,15.02,23.8071,2.6367
2026-01-29,868.69,53.86,25.8829,2.9795
2026-01-30,858.81,37.94,27.4686,3.1984
2026-01-31,781.38,110.85,33.6707,4.3091
2026-02-01,758.54,50.09,35.7036,4.7069
2026-02-02,773.94,53.14,37.2486,4.8129
2026-02-03,754.78,47.49,37.1314,4.9195
2026-02-04,697.27,78.03,40.6229,5.826
2026-02-05,608.3,100.83,46.4393,7.6343
2026-02-06,657.21,99.59,51.9893,7.9106
2026-02-07,647.0,33.05,53.7993,8.3152
2026-02-08,639.93,20.7,53.01,8.2837
2026-02-09,636.39,30.14,53.9821,8.4826
2026-02-10,619.85,28.2,54.2093,8.7455
2026-02-11,608.11,37.0,55.7793,9.1726
2026-02-12,614.29,20.27,53.38,8.6897
2026-02-13,618.94,30.32,52.8357,8.5365
2026-02-14,632.77,21.54,46.4564,7.3418
2026-02-15,615.16,33.67,45.2836,7.3613
2026-02-16,627.19,26.75,43.3986,6.9195
2026-02-17,617.74,22.56,41.6179,6.7371
2026-02-18,604.8,25.27,37.8493,6.2581
2026-02-19,607.83,18.8,31.99,5.263
2026-02-20,625.91,28.51,26.9129,4.2998
2026-02-21,625.61,10.8,25.3236,4.0478
2026-02-22,614.8,16.85,25.0486,4.0743
2026-02-23,596.41,32.87,25.2436,4.2326
2026-02-24,583.6,25.84,25.075,4.2966
2026-02-25,629.42,59.04,26.6493,4.2339
2026-02-26,625.74,19.63,26.6036,4.2515
2026-02-27,614.03,28.4,26.4664,4.3103
2026-02-28,617.14,32.85,27.2743,4.4195
2026-03-01,617.96,21.27,26.3886,4.2703
2026-03-02,637.79,39.91,27.3286,4.2849
2026-03-03,633.56,22.29,27.3093,4.3104
2026-03-04,657.99,39.96,28.3586,4.3099
2026-03-05,647.85,19.28,28.3929,4.3826
2026-03-06,627.31,26.85,28.2743,4.5072
2026-03-07,620.26,12.39,28.3879,4.5768
2026-03-08,611.98,16.41,28.3564,4.6336
2026-03-09,634.64,31.99,28.2936,4.4582
2026-03-10,642.0,17.98,27.7321,4.3196
2026-03-11,651.46,21.27,25.0343,3.8428
2026-03-12,651.72,16.07,24.78,3.8022
2026-03-13,655.73,28.66,24.7986,3.7818
2026-03-14,657.7,8.16,23.035,3.5024
2026-03-15,673.77,24.54,23.2686,3.4535
2026-03-16,679.71,17.69,21.6814,3.1898
2026-03-17,668.61,23.13,21.7414,3.2517
2026-03-18,652.27,32.04,21.1757,3.2465
2026-03-19,639.15,23.08,21.4471,3.3556
2026-03-20,642.11,11.27,20.3343,3.1668
2026-03-21,630.7,18.62,20.7793,3.2946
2026-03-22,626.41,15.54,20.7171,3.3073
2026-03-23,639.11,30.52,20.6121,3.2251
2026-03-24,638.3,13.18,20.2693,3.1755
2026-03-25,647.66,15.3,19.8429,3.0638
2026-03-26,628.86,25.46,20.5136,3.262
2026-03-27,613.95,26.01,20.3243,3.3104
2026-03-28,611.08,9.1,20.3914,3.3369
2026-03-29,606.09,18.88,19.9871,3.2977
2026-03-30,609.29,16.31,19.8886,3.2642
2026-03-31,617.43,20.95,19.7329,3.196
2026-04-01,610.81,12.32,18.3243,3.0
2026-04-02,583.52,43.29,19.7679,3.3877
2026-04-03,588.31,8.38,19.5614,3.325
2026-04-04,593.36,9.48,18.9086,3.1867
2026-04-05,601.5,16.93,19.0079,3.1601
2026-04-06,600.11,14.04,17.8307,2.9712
2026-04-07,620.1,32.65,19.2214,3.0997
2026-04-08,601.16,22.01,19.7007,3.2771
2026-04-09,603.03,15.16,18.965,3.145
2026-04-10,605.54,12.94,18.0314,2.9777
2026-04-11,607.05,10.72,18.1471,2.9894
2026-04-12,592.19,18.34,18.1086,3.0579
2026-04-13,614.71,26.37,18.8271,3.0628
2026-04-14,613.75,14.52,18.3679,2.9927
2026-04-15,622.59,17.19,18.7157,3.0061
2026-04-16,635.77,22.51,17.2314,2.7103
2026-04-17,643.12,19.01,17.9907,2.7974
2026-04-18,629.9,20.76,18.7964,2.984
2026-04-19,616.06,15.43,18.6893,3.0337
2026-04-20,629.26,16.11,18.8371,2.9935
2026-04-21,631.72,15.7,17.6264,2.7902
2026-04-22,637.47,23.0,17.6971,2.7762
2026-04-23,638.54,9.38,17.2843,2.7068
2026-04-24,636.21,8.45,16.9636,2.6663
2026-04-25,628.53,11.35,17.0086,2.7061
2026-04-26,635.76,11.06,16.4886,2.5935
2026-04-27,626.83,21.43,16.1357,2.5742
2026-04-28,624.55,8.58,15.7114,2.5156
2026-04-29,617.39,19.35,15.8657,2.5698
2026-04-30,615.38,7.06,14.7621,2.3989
2026-05-01,615.34,9.05,14.0507,2.2834
2026-05-02,618.03,7.66,13.115,2.1221
2026-05-03,617.27,7.18,12.5257,2.0292
2026-05-04,622.63,23.39,13.0457,2.0953
2026-05-05,630.42,12.42,12.8114,2.0322
2026-05-06,647.74,35.29,13.6893,2.1134
2026-05-07,637.02,19.81,14.4343,2.2659
2026-05-08,649.36,16.77,15.0286,2.3144
2026-05-09,649.75,9.77,14.9157,2.2956
2026-05-10,663.55,21.82,15.6843,2.3637
2026-05-11,670.6,23.54,15.835,2.3613
2026-05-12,664.95,20.98,16.7207,2.5146
2026-05-13,671.68,21.91,16.9036,2.5166
2026-05-14,678.27,22.24,17.9879,2.652
2026-05-15,672.38,20.82,18.8286,2.8003
2026-05-16,656.2,24.22,20.0114,3.0496
2026-05-17,649.48,17.59,20.755,3.1956
2026-05-18,643.53,15.4,20.1843,3.1365
2026-05-19,640.02,11.09,20.0893,3.1389
2026-05-20,649.5,14.25,18.5864,2.8617
2026-05-21,658.58,13.49,18.135,2.7537
2026-05-22,650.44,15.89,18.0721,2.7784
2026-05-23,656.26,28.64,19.42,2.9592
2026-05-24,656.57,12.92,18.7843,2.861
2026-05-25,663.15,17.31,18.3393,2.7655
2026-05-26,656.43,14.56,17.8807,2.7239
2026-05-27,648.84,13.33,17.2679,2.6613
2026-05-28,638.24,21.16,17.1907,2.6935
2026-05-29,643.1,14.14,16.7136,2.5989
2026-05-30,718.74,86.34,21.1507,2.9427
2026-05-31,710.55,42.74,22.9471,3.2295
