date,close,tr,atr_14,atr_14_pct
2021-06-01,1.0108,0.1258,,
2021-06-02,1.0241,0.0705,,
2021-06-03,1.045,0.072,,
2021-06-04,0.9683,0.131,,
2021-06-05,0.923,0.1052,,
2021-06-06,0.947,0.0323,,
2021-06-07,0.8618,0.138,,
2021-06-08,0.8731,0.1023,,
2021-06-09,0.9218,0.0918,,
2021-06-10,0.8686,0.0776,,
2021-06-11,0.8471,0.0465,,
2021-06-12,0.8326,0.0425,,
2021-06-13,0.8832,0.0713,,
2021-06-14,0.8906,0.0672,0.0839,9.4158
2021-06-15,0.8663,0.0466,0.0782,9.0269
2021-06-16,0.832,0.0474,0.0765,9.2007
2021-06-17,0.8419,0.0378,0.0741,8.8024
2021-06-18,0.7972,0.0763,0.0702,8.8058
2021-06-19,0.7582,0.0498,0.0662,8.7369
2021-06-20,0.7741,0.0882,0.0702,9.0732
2021-06-21,0.6067,0.1766,0.073,12.0311
2021-06-22,0.5468,0.141,0.0758,13.8546
2021-06-23,0.6383,0.1452,0.0796,12.4661
2021-06-24,0.6731,0.0765,0.0795,11.81
2021-06-25,0.6111,0.087,0.0824,13.4815
2021-06-26,0.6162,0.0515,0.083,13.4743
2021-06-27,0.6484,0.056,0.0819,12.6366
2021-06-28,0.6444,0.0345,0.0796,12.3526
2021-06-29,0.7063,0.0923,0.0829,11.7322
2021-06-30,0.7063,0.0668,0.0842,11.9284
2021-07-01,0.6591,0.0624,0.086,13.0492
2021-07-02,0.6556,0.0347,0.083,12.6656
2021-07-03,0.6732,0.0416,0.0824,12.2475
2021-07-04,0.696,0.0436,0.0793,11.3885
2021-07-05,0.6526,0.0526,0.0704,10.7887
2021-07-06,0.6648,0.0289,0.0624,9.3863
2021-07-07,0.6522,0.024,0.0537,8.2402
2021-07-08,0.6215,0.0437,0.0514,8.2703
2021-07-09,0.6369,0.054,0.049,7.7002
2021-07-10,0.6246,0.0369,0.048,7.6849
2021-07-11,0.6364,0.028,0.046,7.2282
2021-07-12,0.6288,0.0403,0.0464,7.3814
2021-07-13,0.6192,0.034,0.0422,6.8233
2021-07-14,0.6197,0.0399,0.0403,6.5078
2021-07-15,0.5979,0.0395,0.0387,6.4715
2021-07-16,0.5893,0.0337,0.0386,6.5538
2021-07-17,0.5821,0.0377,0.0383,6.587
2021-07-18,0.5866,0.0306,0.0374,6.3782
2021-07-19,0.557,0.0356,0.0362,6.4991
2021-07-20,0.5284,0.0542,0.038,7.1929
2021-07-21,0.5719,0.0647,0.0409,7.1541
2021-07-22,0.592,0.0424,0.0408,6.8955
2021-07-23,0.6091,0.0348,0.0394,6.4768
2021-07-24,0.6085,0.0209,0.0383,6.2953
2021-07-25,0.6069,0.0212,0.0378,6.2319
2021-07-26,0.6234,0.0745,0.0403,6.4588
2021-07-27,0.6451,0.0407,0.0407,6.3157
2021-07-28,0.7327,0.1241,0.0468,6.3815
2021-07-29,0.7488,0.0695,0.0489,6.5304
2021-07-30,0.7521,0.0582,0.0506,6.7345
2021-07-31,0.746,0.0224,0.0496,6.643
2021-08-01,0.7242,0.0736,0.0526,7.2671
2021-08-02,0.738,0.059,0.0543,7.3577
2021-08-03,0.7136,0.0442,0.0536,7.5092
2021-08-04,0.731,0.0446,0.0522,7.1341
2021-08-05,0.7327,0.0379,0.0518,7.0736
2021-08-06,0.7474,0.0311,0.0516,6.8992
2021-08-07,0.8162,0.0778,0.0556,6.8156
2021-08-08,0.7788,0.0696,0.0591,7.5868
2021-08-09,0.817,0.0683,0.0586,7.1778
2021-08-10,0.8511,0.0622,0.0602,7.0707
2021-08-11,1.0105,0.2426,0.0686,6.793
2021-08-12,0.966,0.1228,0.0725,7.5
2021-08-13,1.0901,0.1467,0.0788,7.2261
2021-08-14,1.2791,0.2409,0.0944,7.3785
2021-08-15,1.2839,0.1248,0.098,7.6358
2021-08-16,1.1855,0.1856,0.1071,9.0324
2021-08-17,1.0978,0.1629,0.1156,10.5262
2021-08-18,1.1431,0.1462,0.1228,10.744
2021-08-19,1.2347,0.146,0.1305,10.5723
2021-08-20,1.2629,0.0905,0.1348,10.6721
2021-08-21,1.2158,0.0835,0.1352,11.1191
2021-08-22,1.226,0.0781,0.1358,11.0761
2021-08-23,1.2457,0.1022,0.1382,11.0953
2021-08-24,1.1353,0.1446,0.1441,12.6927
2021-08-25,1.1735,0.0706,0.1318,11.2326
2021-08-26,1.0712,0.123,0.1318,12.3066
2021-08-27,1.1918,0.1425,0.1315,11.0361
2021-08-28,1.1459,0.0651,0.119,10.3824
2021-08-29,1.1408,0.0563,0.1141,9.9999
2021-08-30,1.1002,0.0542,0.1047,9.5158
2021-08-31,1.1856,0.1534,0.104,8.7731
2021-09-01,1.2362,0.0804,0.0993,8.0338
2021-09-02,1.2533,0.0734,0.0941,7.5105
2021-09-03,1.2907,0.1046,0.0951,7.3709
2021-09-04,1.2548,0.062,0.0936,7.4594
2021-09-05,1.3076,0.0764,0.0935,7.1489
2021-09-06,1.3894,0.1086,0.0939,6.7609
2021-09-07,1.1292,0.4398,0.115,10.1861
2021-09-08,1.0998,0.1347,0.1196,10.8747
2021-09-09,1.0868,0.0758,0.1162,10.6946
2021-09-10,1.0552,0.215,0.1214,11.5056
2021-09-11,1.0787,0.0697,0.1217,11.2854
2021-09-12,1.1181,0.07,0.1227,10.9753
2021-09-13,1.0643,0.1016,0.1261,11.8482
2021-09-14,1.0963,0.0412,0.1181,10.7713
2021-09-15,1.1207,0.0516,0.116,10.3532
2021-09-16,1.0902,0.0638,0.1153,10.58
2021-09-17,1.0661,0.0516,0.1116,10.464
2021-09-18,1.0751,0.039,0.1099,10.2236
2021-09-19,1.0483,0.0454,0.1077,10.2738
2021-09-20,0.9216,0.1759,0.1125,12.2078
2021-09-21,0.8743,0.1011,0.0883,10.1011
2021-09-22,1.0033,0.1415,0.0888,8.8508
2021-09-23,1.0016,0.0494,0.0869,8.6775
2021-09-24,0.944,0.1169,0.0799,8.4647
2021-09-25,0.94,0.0414,0.0779,8.2857
2021-09-26,0.9436,0.0652,0.0775,8.2178
2021-09-27,0.9218,0.0624,0.0747,8.1084
2021-09-28,0.8928,0.0528,0.0756,8.4645
2021-09-29,0.9268,0.108,0.0796,8.5887
2021-09-30,0.9533,0.0423,0.0781,8.1888
2021-10-01,1.0422,0.1252,0.0833,7.9948
2021-10-02,1.0359,0.0654,0.0852,8.2254
2021-10-03,1.0552,0.0674,0.0868,8.2239
2021-10-04,1.0425,0.0537,0.078,7.4868
2021-10-05,1.0839,0.05,0.0744,6.8641
2021-10-06,1.0765,0.091,0.0708,6.5762
2021-10-07,1.0678,0.0519,0.071,6.6465
2021-10-08,1.0636,0.0388,0.0654,6.1483
2021-10-09,1.1604,0.1524,0.0733,6.3186
2021-10-10,1.1352,0.1038,0.0761,6.7018
2021-10-11,1.1364,0.0803,0.0774,6.8072
2021-10-12,1.1018,0.073,0.0788,7.1519
2021-10-13,1.1275,0.0637,0.0756,6.7083
2021-10-14,1.1336,0.0426,0.0757,6.6741
2021-10-15,1.1413,0.0742,0.072,6.3098
2021-10-16,1.1343,0.0569,0.0714,6.2953
2021-10-17,1.0944,0.1235,0.0754,6.8909
2021-10-18,1.0827,0.0422,0.0746,6.8895
2021-10-19,1.0911,0.0348,0.0735,6.737
2021-10-20,1.1455,0.0661,0.0717,6.2618
2021-10-21,1.0886,0.0789,0.0737,6.7662
2021-10-22,1.0885,0.0549,0.0748,6.8725
2021-10-23,1.0934,0.0255,0.0657,6.0127
2021-10-24,1.0821,0.0439,0.0615,5.6801
2021-10-25,1.0951,0.0256,0.0576,5.2559
2021-10-26,1.1075,0.0701,0.0573,5.1783
2021-10-27,0.995,0.1765,0.0654,6.5736
2021-10-28,1.0579,0.1006,0.0695,6.5743
2021-10-29,1.0825,0.0494,0.0678,6.2613
2021-10-30,1.0846,0.0558,0.0677,6.2419
2021-10-31,1.1128,0.0855,0.065,5.8398
2021-11-01,1.0915,0.0631,0.0665,6.0906
2021-11-02,1.1349,0.0617,0.0684,6.027
2021-11-03,1.2101,0.1108,0.0716,5.9163
2021-11-04,1.2004,0.097,0.0729,6.0718
2021-11-05,1.1581,0.0704,0.074,6.3892
2021-11-06,1.151,0.0828,0.0781,6.7842
2021-11-07,1.2198,0.0923,0.0815,6.6849
2021-11-08,1.2815,0.0768,0.0852,6.6485
2021-11-09,1.2571,0.0639,0.0848,6.7423
2021-11-10,1.1902,0.2319,0.0887,7.4537
2021-11-11,1.2142,0.078,0.0871,7.1734
2021-11-12,1.1883,0.079,0.0892,7.5077
2021-11-13,1.1892,0.0369,0.0879,7.3885
2021-11-14,1.1879,0.032,0.084,7.0749
2021-11-15,1.172,0.0547,0.0834,7.1197
2021-11-16,1.0877,0.1303,0.0883,8.122
2021-11-17,1.0953,0.0542,0.0843,7.6965
2021-11-18,1.0406,0.155,0.0884,8.4992
2021-11-19,1.0892,0.0856,0.0895,8.2197
2021-11-20,1.0965,0.0421,0.0866,7.8998
2021-11-21,1.0569,0.043,0.0831,7.8626
2021-11-22,1.0354,0.0459,0.0809,7.8127
2021-11-23,1.0661,0.0523,0.0801,7.51
2021-11-24,1.0326,0.0667,0.0683,6.6109
2021-11-25,1.0438,0.0432,0.0658,6.3018
2021-11-26,0.9394,0.1359,0.0698,7.4348
2021-11-27,0.9452,0.032,0.0695,7.3522
2021-11-28,0.9687,0.0867,0.0734,7.5772
2021-11-29,0.9898,0.0388,0.0723,7.3009
2021-11-30,0.9983,0.0604,0.0673,6.7386
2021-12-01,0.9899,0.0374,0.0661,6.6746
2021-12-02,0.9716,0.0356,0.0575,5.9225
2021-12-03,0.9211,0.0938,0.0581,6.3108
2021-12-04,0.8449,0.3245,0.0783,9.2674
2021-12-05,0.8045,0.093,0.0819,10.1767
2021-12-06,0.8255,0.0818,0.0844,10.2284
2021-12-07,0.8154,0.0425,0.0837,10.2693
2021-12-08,0.8622,0.0818,0.0848,9.837
2021-12-09,0.8583,0.1042,0.0892,10.3893
2021-12-10,0.7992,0.0915,0.086,10.7608
2021-12-11,0.8392,0.0601,0.088,10.487
2021-12-12,0.8393,0.0484,0.0853,10.1598
2021-12-13,0.7818,0.0843,0.0885,11.3228
2021-12-14,0.8103,0.0497,0.0878,10.8302
2021-12-15,0.8262,0.063,0.0896,10.8431
2021-12-16,0.8051,0.0336,0.0894,11.1095
2021-12-17,0.7966,0.0568,0.0868,10.8963
2021-12-18,0.8262,0.0437,0.0667,8.0783
2021-12-19,0.835,0.0295,0.0622,7.45
2021-12-20,0.8798,0.0909,0.0629,7.1445
2021-12-21,0.9467,0.1083,0.0676,7.1361
2021-12-22,0.9537,0.0508,0.0653,6.8515
2021-12-23,0.9941,0.0795,0.0636,6.3956
2021-12-24,0.9115,0.1002,0.0642,7.0433
2021-12-25,0.9252,0.0369,0.0625,6.7599
2021-12-26,0.92,0.0282,0.0611,6.6413
2021-12-27,0.9269,0.0419,0.0581,6.2651
2021-12-28,0.8515,0.0813,0.0603,7.085
2021-12-29,0.8171,0.0545,0.0597,7.3089
2021-12-30,0.8386,0.058,0.0615,7.3294
2021-12-31,0.8297,0.052,0.0611,7.3667
2022-01-01,0.8507,0.026,0.0599,7.0362
2022-01-02,0.8586,0.0295,0.0599,6.9715
2022-01-03,0.8324,0.0374,0.056,6.7318
2022-01-04,0.8228,0.0662,0.053,6.4449
2022-01-05,0.7726,0.128,0.0585,7.5774
2022-01-06,0.7791,0.0532,0.0567,7.273
2022-01-07,0.7634,0.0521,0.0532,6.9726
2022-01-08,0.7452,0.0546,0.0545,7.3125
2022-01-09,0.753,0.0286,0.0545,7.2406
2022-01-10,0.7399,0.0622,0.056,7.5647
2022-01-11,0.7703,0.0462,0.0535,6.9407
2022-01-12,0.7987,0.059,0.0538,6.7342
2022-01-13,0.768,0.042,0.0526,6.8545
2022-01-14,0.7732,0.0487,0.0524,6.778
2022-01-15,0.7791,0.022,0.0521,6.69
2022-01-16,0.7784,0.0204,0.0515,6.6125
2022-01-17,0.7617,0.0307,0.051,6.6946
2022-01-18,0.7509,0.0334,0.0487,6.4789
2022-01-19,0.7381,0.0302,0.0417,5.6448
2022-01-20,0.7199,0.0461,0.0412,5.7171
2022-01-21,0.6368,0.1173,0.0458,7.1945
2022-01-22,0.5966,0.1053,0.0494,8.2862
2022-01-23,0.6283,0.0452,0.0506,8.0569
2022-01-24,0.6118,0.0762,0.0516,8.4376
2022-01-25,0.618,0.0371,0.051,8.2478
2022-01-26,0.6193,0.0539,0.0506,8.1717
2022-01-27,0.6088,0.0354,0.0501,8.2352
2022-01-28,0.6111,0.0224,0.0483,7.8968
2022-01-29,0.6174,0.0172,0.0479,7.7607
2022-01-30,0.6013,0.0259,0.0483,8.0338
2022-01-31,0.6174,0.0439,0.0492,7.977
2022-02-01,0.6284,0.0201,0.0483,7.6862
2022-02-02,0.6006,0.0359,0.0487,8.1097
2022-02-03,0.6102,0.023,0.0471,7.7118
2022-02-04,0.6555,0.0545,0.0426,6.4945
2022-02-05,0.6656,0.0369,0.0377,5.6619
2022-02-06,0.6825,0.0291,0.0365,5.3532
2022-02-07,0.8314,0.1678,0.0431,5.1814
2022-02-08,0.8763,0.1108,0.0483,5.5167
2022-02-09,0.8697,0.0755,0.0499,5.736
2022-02-10,0.8253,0.0765,0.0528,6.4003
2022-02-11,0.7591,0.0839,0.0572,7.5371
2022-02-12,0.8223,0.1067,0.0636,7.7353
2022-02-13,0.8057,0.0556,0.0657,8.1579
2022-02-14,0.8012,0.0336,0.065,8.1119
2022-02-15,0.8515,0.0638,0.0681,7.9993
2022-02-16,0.8366,0.0446,0.0687,8.2161
2022-02-17,0.769,0.0913,0.0736,9.5727
2022-02-18,0.784,0.0495,0.0733,9.344
2022-02-19,0.8215,0.0851,0.0767,9.3366
2022-02-20,0.7769,0.0591,0.0788,10.1484
2022-02-21,0.7018,0.1067,0.0745,10.6125
2022-02-22,0.7209,0.058,0.0707,9.8082
2022-02-23,0.6967,0.0517,0.069,9.9049
2022-02-24,0.6963,0.1011,0.0708,10.1629
2022-02-25,0.7699,0.0981,0.0718,9.3231
2022-02-26,0.7508,0.0552,0.0681,9.0703
2022-02-27,0.7215,0.0645,0.0687,9.5268
2022-02-28,0.7809,0.0863,0.0725,9.2842
2022-03-01,0.7839,0.0465,0.0713,9.091
2022-03-02,0.7687,0.0286,0.0701,9.1221
2022-03-03,0.7515,0.0561,0.0676,8.9963
2022-03-04,0.7127,0.0608,0.0684,9.5993
2022-03-05,0.754,0.0644,0.0669,8.8774
2022-03-06,0.7251,0.0378,0.0654,9.0214
2022-03-07,0.7197,0.0511,0.0614,8.5373
2022-03-08,0.7207,0.0178,0.0586,8.127
2022-03-09,0.7658,0.0551,0.0588,7.6801
2022-03-10,0.7361,0.0582,0.0557,7.5737
2022-03-11,0.8029,0.089,0.0551,6.8626
2022-03-12,0.7857,0.0707,0.0562,7.1538
2022-03-13,0.7602,0.0549,0.0555,7.3035
2022-03-14,0.7748,0.0329,0.0517,6.6736
2022-03-15,0.7657,0.0355,0.0509,6.6503
2022-03-16,0.7919,0.0376,0.0516,6.5115
2022-03-17,0.7935,0.019,0.0489,6.1644
2022-03-18,0.7965,0.0245,0.0463,5.8156
2022-03-19,0.8194,0.0353,0.0442,5.3994
2022-03-20,0.8057,0.027,0.0435,5.3955
2022-03-21,0.8373,0.0674,0.0446,5.3309
2022-03-22,0.8366,0.038,0.0461,5.5078
2022-03-23,0.8376,0.0289,0.0442,5.2778
2022-03-24,0.8428,0.0228,0.0417,4.9453
2022-03-25,0.8239,0.0274,0.0373,4.5246
2022-03-26,0.8327,0.0143,0.0332,3.993
2022-03-27,0.858,0.0307,0.0315,3.6738
2022-03-28,0.8641,0.0772,0.0347,4.0141
2022-03-29,0.8577,0.0468,0.0355,4.1381
2022-03-30,0.8613,0.0263,0.0347,4.0271
2022-03-31,0.8148,0.0943,0.0401,4.9171
2022-04-01,0.8277,0.0273,0.0403,4.8646
2022-04-02,0.824,0.0314,0.04,4.8526
2022-04-03,0.8432,0.0376,0.0407,4.8319
2022-04-04,0.826,0.0399,0.0388,4.6947
2022-04-05,0.8164,0.0221,0.0376,4.6108
2022-04-06,0.7595,0.0629,0.0401,5.276
2022-04-07,0.7871,0.0388,0.0412,5.2362
2022-04-08,0.7549,0.0481,0.0427,5.6554
2022-04-09,0.7622,0.0137,0.0427,5.5956
2022-04-10,0.7543,0.0207,0.0419,5.5596
2022-04-11,0.6948,0.0756,0.0418,6.0192
2022-04-12,0.7152,0.0416,0.0415,5.7956
2022-04-13,0.7232,0.0235,0.0413,5.7038
2022-04-14,0.7262,0.033,0.0369,5.0773
2022-04-15,0.7858,0.0714,0.04,5.0931
2022-04-16,0.7808,0.0341,0.0402,5.1504
2022-04-17,0.7519,0.0384,0.0403,5.356
2022-04-18,0.7699,0.0433,0.0405,5.2623
2022-04-19,0.7749,0.0272,0.0409,5.2753
2022-04-20,0.7517,0.0333,0.0388,5.1569
2022-04-21,0.7328,0.0506,0.0396,5.4049
2022-04-22,0.7179,0.0245,0.0379,5.2823
2022-04-23,0.7057,0.0244,0.0387,5.4819
2022-04-24,0.6981,0.0175,0.0385,5.5088
2022-04-25,0.6931,0.0547,0.037,5.3332
2022-04-26,0.642,0.0789,0.0396,6.1727
2022-04-27,0.6522,0.0269,0.0399,6.1134
2022-04-28,0.6428,0.0244,0.0393,6.1072
2022-04-29,0.6116,0.0472,0.0375,6.1361
2022-04-30,0.5845,0.0625,0.0396,6.7677
2022-05-01,0.607,0.0365,0.0394,6.4945
2022-05-02,0.6143,0.0328,0.0387,6.2952
2022-05-03,0.6047,0.0319,0.039,6.4507
2022-05-04,0.6459,0.0461,0.0399,6.1807
2022-05-05,0.5981,0.0771,0.0418,6.9912
2022-05-06,0.6022,0.0289,0.0421,6.9958
2022-05-07,0.5808,0.0352,0.0429,7.3864
2022-05-08,0.5662,0.0261,0.0435,7.6853
2022-05-09,0.4873,0.1089,0.0474,9.7241
2022-05-10,0.513,0.0649,0.0464,9.042
2022-05-11,0.4172,0.1607,0.0559,13.4091
2022-05-12,0.3856,0.0935,0.0609,15.788
2022-05-13,0.4228,0.0846,0.0636,15.0307
2022-05-14,0.4262,0.0455,0.0623,14.6259
2022-05-15,0.4481,0.0351,0.0622,13.8888
2022-05-16,0.4231,0.0394,0.0627,14.8209
2022-05-17,0.438,0.0233,0.0621,14.1765
2022-05-18,0.4056,0.0391,0.0616,15.1856
2022-05-19,0.4205,0.0334,0.0585,13.9052
2022-05-20,0.4101,0.0391,0.0592,14.4355
2022-05-21,0.4145,0.0153,0.0578,13.9393
2022-05-22,0.4218,0.0154,0.057,13.5169
2022-05-23,0.4052,0.0285,0.0513,12.6534
2022-05-24,0.4086,0.023,0.0483,11.8156
2022-05-25,0.406,0.019,0.0382,9.3983
2022-05-26,0.392,0.0356,0.034,8.6789
2022-05-27,0.3819,0.0268,0.0299,7.8274
2022-05-28,0.3863,0.0085,0.0273,7.0541
2022-05-29,0.3891,0.0114,0.0256,6.5683
2022-05-30,0.4187,0.0331,0.0251,5.9965
2022-05-31,0.4217,0.0277,0.0254,6.0283
2022-06-01,0.398,0.0379,0.0253,6.3658
2022-06-02,0.4055,0.0165,0.0241,5.9503
2022-06-03,0.3904,0.0266,0.0232,5.9518
2022-06-04,0.3925,0.0098,0.0228,5.8198
2022-06-05,0.3953,0.01,0.0225,5.681
2022-06-06,0.4026,0.0159,0.0216,5.3545
2022-06-07,0.4076,0.0329,0.0223,5.4623
2022-06-08,0.4006,0.0157,0.022,5.4989
2022-06-09,0.4002,0.0076,0.02,5.0046
2022-06-10,0.3815,0.0356,0.0207,5.4147
2022-06-11,0.3599,0.033,0.0224,6.2259
2022-06-12,0.3433,0.026,0.0234,6.8308
2022-06-13,0.3118,0.0495,0.0246,7.8965
2022-06-14,0.3214,0.0331,0.025,7.7807
2022-06-15,0.3436,0.0489,0.0258,7.5067
2022-06-16,0.3132,0.0402,0.0275,8.7758
2022-06-17,0.321,0.0292,0.0277,8.6204
2022-06-18,0.3075,0.0391,0.0298,9.6794
2022-06-19,0.3264,0.0349,0.0315,9.6639
2022-06-20,0.3227,0.0154,0.0315,9.7636
2022-06-21,0.3294,0.0187,0.0305,9.2571
2022-06-22,0.3223,0.0107,0.0301,9.3502
2022-06-23,0.3358,0.0158,0.0307,9.1487
2022-06-24,0.3672,0.0523,0.0319,8.6913
2022-06-25,0.3676,0.0199,0.031,8.4273
2022-06-26,0.3592,0.0175,0.0304,8.4553
2022-06-27,0.3537,0.0191,0.0282,7.9729
2022-06-28,0.3375,0.0204,0.0273,8.0868
2022-06-29,0.3296,0.0216,0.0253,7.689
2022-06-30,0.3321,0.0277,0.0245,7.3622
2022-07-01,0.3139,0.0263,0.0242,7.7231
2022-07-02,0.3156,0.0092,0.0221,7.0048
2022-07-03,0.3215,0.0173,0.0209,6.4852
2022-07-04,0.3287,0.0154,0.0209,6.3432
2022-07-05,0.3252,0.0182,0.0208,6.4005
2022-07-06,0.3324,0.014,0.0211,6.3327
2022-07-07,0.3422,0.0187,0.0213,6.2119
2022-07-08,0.3402,0.0231,0.0192,5.6353
2022-07-09,0.3448,0.0085,0.0184,5.324
2022-07-10,0.3255,0.0252,0.0189,5.8086
2022-07-11,0.3152,0.0184,0.0189,5.9826
2022-07-12,0.3116,0.0104,0.0181,5.8225
2022-07-13,0.3237,0.024,0.0183,5.6578
2022-07-14,0.3338,0.0218,0.0179,5.3604
2022-07-15,0.3342,0.0217,0.0176,5.2556
2022-07-16,0.3505,0.0252,0.0187,5.3373
2022-07-17,0.3433,0.0201,0.0189,5.5075
2022-07-18,0.3653,0.0272,0.0198,5.4065
2022-07-19,0.3729,0.0252,0.0203,5.4304
2022-07-20,0.3635,0.0245,0.021,5.7772
2022-07-21,0.3669,0.02,0.0211,5.7489
2022-07-22,0.3578,0.0175,0.0207,5.7834
2022-07-23,0.3592,0.013,0.021,5.8503
2022-07-24,0.3586,0.0109,0.02,5.5753
2022-07-25,0.3362,0.0252,0.0205,6.0912
2022-07-26,0.3372,0.0133,0.0207,6.1346
2022-07-27,0.3594,0.0293,0.0211,5.861
2022-07-28,0.3739,0.0303,0.0217,5.796
2022-07-29,0.3679,0.0203,0.0216,5.8634
2022-07-30,0.3879,0.047,0.0231,5.9625
2022-07-31,0.3792,0.0207,0.0232,6.1106
2022-08-01,0.3791,0.015,0.0223,5.8824
2022-08-02,0.3714,0.0279,0.0225,6.0562
2022-08-03,0.3695,0.0144,0.0218,5.8921
2022-08-04,0.371,0.0107,0.0211,5.6893
2022-08-05,0.3764,0.0112,0.0207,5.4881
2022-08-06,0.3715,0.0077,0.0203,5.4586
2022-08-07,0.3722,0.009,0.0201,5.4118
2022-08-08,0.3787,0.0137,0.0193,5.102
2022-08-09,0.3672,0.0195,0.0198,5.3824
2022-08-10,0.3814,0.0232,0.0193,5.0678
2022-08-11,0.3802,0.009,0.0178,4.6836
2022-08-12,0.3796,0.0107,0.0171,4.5104
2022-08-13,0.378,0.0113,0.0146,3.8549
2022-08-14,0.3757,0.0184,0.0144,3.8347
2022-08-15,0.3751,0.0194,0.0147,3.9247
2022-08-16,0.377,0.0118,0.0136,3.5998
2022-08-17,0.3795,0.0243,0.0143,3.7625
2022-08-18,0.3704,0.0124,0.0144,3.8877
2022-08-19,0.3344,0.0398,0.0164,4.9171
2022-08-20,0.3368,0.0107,0.0167,4.9457
2022-08-21,0.3449,0.013,0.0169,4.9124
2022-08-22,0.344,0.014,0.017,4.9315
2022-08-23,0.3472,0.0154,0.0167,4.8017
2022-08-24,0.3456,0.0136,0.016,4.6255
2022-08-25,0.3491,0.0087,0.016,4.573
2022-08-26,0.3393,0.0387,0.018,5.2945
2022-08-27,0.3346,0.0164,0.0183,5.4778
2022-08-28,0.3224,0.016,0.0182,5.6319
2022-08-29,0.3337,0.0156,0.0179,5.3598
2022-08-30,0.3267,0.0159,0.0182,5.5643
2022-08-31,0.3277,0.0109,0.0172,5.2552
2022-09-01,0.3331,0.0119,0.0172,5.1593
2022-09-02,0.3314,0.0102,0.0151,4.5478
2022-09-03,0.3297,0.0085,0.0149,4.5236
2022-09-04,0.3317,0.0053,0.0144,4.3305
2022-09-05,0.3329,0.0113,0.0142,4.257
2022-09-06,0.3212,0.0277,0.015,4.6856
2022-09-07,0.3369,0.0266,0.016,4.7428
2022-09-08,0.3396,0.0152,0.0164,4.8418
2022-09-09,0.3568,0.0203,0.0151,4.2401
2022-09-10,0.3573,0.0108,0.0147,4.1222
2022-09-11,0.3552,0.0119,0.0144,4.0641
2022-09-12,0.3598,0.0124,0.0142,3.9486
2022-09-13,0.3326,0.0295,0.0152,4.5636
2022-09-14,0.3415,0.013,0.0153,4.4886
2022-09-15,0.3261,0.0188,0.0158,4.8517
2022-09-16,0.3552,0.0365,0.0177,4.9831
2022-09-17,0.3762,0.0346,0.0196,5.2005
2022-09-18,0.3576,0.0425,0.0222,6.214
2022-09-19,0.3848,0.0531,0.0252,6.5507
2022-09-20,0.414,0.0538,0.0271,6.539
2022-09-21,0.3936,0.054,0.029,7.3751
2022-09-22,0.4862,0.1067,0.0356,7.3147
2022-09-23,0.5069,0.1026,0.0414,8.1757
2022-09-24,0.4878,0.0478,0.0441,9.0377
2022-09-25,0.4917,0.0458,0.0465,9.4584
2022-09-26,0.4683,0.0444,0.0488,10.4191
2022-09-27,0.4457,0.0532,0.0505,11.3273
2022-09-28,0.4489,0.039,0.0523,11.6602
2022-09-29,0.4877,0.0843,0.057,11.6919
2022-09-30,0.4799,0.0325,0.0567,11.8224
2022-10-01,0.4754,0.0198,0.0557,11.7119
2022-10-02,0.4485,0.0355,0.0552,12.3029
2022-10-03,0.4621,0.0322,0.0537,11.6178
2022-10-04,0.4795,0.0343,0.0523,10.9057
2022-10-05,0.4887,0.0304,0.0506,10.3555
2022-10-06,0.4934,0.018,0.0443,8.9727
2022-10-07,0.5177,0.0539,0.0408,7.8796
2022-10-08,0.517,0.0181,0.0387,7.48
2022-10-09,0.5325,0.043,0.0385,7.2247
2022-10-10,0.4939,0.0453,0.0385,7.8023
2022-10-11,0.4861,0.0257,0.0366,7.5234
2022-10-12,0.4881,0.014,0.0348,7.1268
2022-10-13,0.4791,0.0497,0.0323,6.7448
2022-10-14,0.4883,0.0343,0.0324,6.644
2022-10-15,0.4818,0.0126,0.0319,6.6269
2022-10-16,0.4766,0.0196,0.0308,6.4609
2022-10-17,0.4804,0.0198,0.0299,6.2255
2022-10-18,0.4658,0.0272,0.0294,6.3117
2022-10-19,0.4504,0.0196,0.0286,6.3563
2022-10-20,0.4465,0.0422,0.0304,6.7989
2022-10-21,0.4614,0.0281,0.0285,6.1799
2022-10-22,0.4653,0.0147,0.0283,6.076
2022-10-23,0.4688,0.0208,0.0267,5.6923
2022-10-24,0.4529,0.0252,0.0252,5.5752
2022-10-25,0.4605,0.0294,0.0255,5.5406
2022-10-26,0.4689,0.0153,0.0256,5.4611
2022-10-27,0.4615,0.024,0.0238,5.1509
2022-10-28,0.4744,0.0191,0.0227,4.782
2022-10-29,0.4701,0.018,0.0231,4.9078
2022-10-30,0.4582,0.0198,0.0231,5.0383
2022-10-31,0.4641,0.0198,0.0231,4.9743
2022-11-01,0.4636,0.0127,0.0221,4.7563
2022-11-02,0.4497,0.0208,0.0221,4.9223
2022-11-03,0.4548,0.0111,0.0199,4.3787
2022-11-04,0.5064,0.0546,0.0218,4.3063
2022-11-05,0.493,0.021,0.0223,4.5146
2022-11-06,0.4709,0.0267,0.0227,4.816
2022-11-07,0.4648,0.0215,0.0224,4.8224
2022-11-08,0.4059,0.1314,0.0297,7.3171
2022-11-09,0.3331,0.095,0.0354,10.6253
2022-11-10,0.3942,0.0729,0.0389,9.8645
2022-11-11,0.3843,0.033,0.0399,10.3769
2022-11-12,0.3636,0.0254,0.0404,11.1131
2022-11-13,0.3408,0.0369,0.0416,12.215
2022-11-14,0.3776,0.0586,0.0444,11.7585
2022-11-15,0.3888,0.0309,0.0457,11.7541
2022-11-16,0.3752,0.0301,0.0464,12.3572
2022-11-17,0.3819,0.0182,0.0469,12.2732
2022-11-18,0.3829,0.0145,0.044,11.4931
2022-11-19,0.3841,0.0134,0.0435,11.3159
2022-11-20,0.3608,0.0384,0.0443,12.2783
2022-11-21,0.3645,0.0233,0.0444,12.1889
2022-11-22,0.3757,0.0271,0.037,9.8426
2022-11-23,0.3815,0.0142,0.0312,8.1801
2022-11-24,0.4018,0.0308,0.0282,7.0184
2022-11-25,0.4078,0.0306,0.028,6.8731
2022-11-26,0.396,0.0219,0.0278,7.0148
2022-11-27,0.3962,0.0154,0.0262,6.6236
2022-11-28,0.3888,0.0261,0.0239,6.1526
2022-11-29,0.3981,0.021,0.0232,5.8313
2022-11-30,0.4078,0.0191,0.0224,5.4999
2022-12-01,0.3969,0.0149,0.0222,5.5915
2022-12-02,0.3961,0.0137,0.0221,5.5884
2022-12-03,0.3873,0.012,0.022,5.6896
2022-12-04,0.3895,0.0072,0.0198,5.0853
2022-12-05,0.3893,0.0154,0.0192,4.9429
2022-12-06,0.3914,0.0117,0.0181,4.6354
2022-12-07,0.3835,0.0192,0.0185,4.824
2022-12-08,0.3941,0.0136,0.0173,4.3825
2022-12-09,0.3889,0.0109,0.0159,4.0793
2022-12-10,0.3865,0.0039,0.0146,3.7719
2022-12-11,0.3809,0.0108,0.0142,3.7411
2022-12-12,0.3874,0.0191,0.0137,3.5493
2022-12-13,0.3952,0.0184,0.0136,3.4323
2022-12-14,0.3853,0.0188,0.0135,3.5149
2022-12-15,0.378,0.0132,0.0134,3.5506
2022-12-16,0.3511,0.0359,0.015,4.2743
2022-12-17,0.3545,0.0131,0.0151,4.2555
2022-12-18,0.3499,0.0083,0.0152,4.3339
2022-12-19,0.3389,0.021,0.0156,4.5926
2022-12-20,0.3482,0.0173,0.016,4.5848
2022-12-21,0.3449,0.0134,0.0155,4.5086
2022-12-22,0.3492,0.0089,0.0152,4.3569
2022-12-23,0.3543,0.0079,0.015,4.2337
2022-12-24,0.3517,0.0035,0.015,4.2569
2022-12-25,0.3457,0.008,0.0148,4.2729
2022-12-26,0.3658,0.0245,0.0152,4.1436
2022-12-27,0.3675,0.0145,0.0149,4.0486
2022-12-28,0.3558,0.0141,0.0145,4.0874
2022-12-29,0.3421,0.0216,0.0151,4.4264
2022-12-30,0.3451,0.0124,0.0135,3.9016
2022-12-31,0.3389,0.0069,0.013,3.8423
2023-01-01,0.3387,0.0046,0.0128,3.7665
2023-01-02,0.3482,0.0555,0.0152,4.3715
2023-01-03,0.3436,0.0125,0.0149,4.3302
2023-01-04,0.3472,0.0215,0.0155,4.4519
2023-01-05,0.338,0.0154,0.0159,4.7105
2023-01-06,0.3443,0.0151,0.0164,4.7737
2023-01-07,0.3442,0.0044,0.0165,4.7937
2023-01-08,0.3452,0.0115,0.0168,4.8523
2023-01-09,0.349,0.0139,0.016,4.5825
2023-01-10,0.3507,0.0109,0.0157,4.4869
2023-01-11,0.3728,0.0308,0.0169,4.5409
2023-01-12,0.3748,0.0213,0.0169,4.511
2023-01-13,0.3858,0.0188,0.0174,4.5009
2023-01-14,0.3953,0.0323,0.0192,4.8516
2023-01-15,0.3845,0.0174,0.0201,5.2257
2023-01-16,0.3855,0.0287,0.0182,4.7156
2023-01-17,0.3868,0.0197,0.0187,4.8327
2023-01-18,0.3782,0.0309,0.0194,5.1201
2023-01-19,0.3928,0.0203,0.0197,5.0189
2023-01-20,0.4129,0.0282,0.0206,5.0012
2023-01-21,0.4034,0.0199,0.0218,5.3934
2023-01-22,0.4004,0.016,0.0221,5.5141
2023-01-23,0.4234,0.0335,0.0235,5.5452
2023-01-24,0.4078,0.0287,0.0247,6.0692
2023-01-25,0.417,0.028,0.0245,5.8873
2023-01-26,0.4092,0.0125,0.0239,5.8459
2023-01-27,0.4128,0.0147,0.0236,5.724
2023-01-28,0.4078,0.0113,0.0221,5.4263
2023-01-29,0.4134,0.0107,0.0216,5.2371
2023-01-30,0.3934,0.0362,0.0222,5.6395
2023-01-31,0.4057,0.0233,0.0224,5.5319
2023-02-01,0.4131,0.0195,0.0216,5.2357
2023-02-02,0.4098,0.0112,0.021,5.1192
2023-02-03,0.4117,0.0083,0.0196,4.7503
2023-02-04,0.4106,0.0129,0.0191,4.6413
2023-02-05,0.3984,0.0178,0.0192,4.8157
2023-02-06,0.392,0.0128,0.0177,4.5171
2023-02-07,0.4036,0.0147,0.0167,4.1395
2023-02-08,0.3975,0.0124,0.0156,3.9227
2023-02-09,0.3819,0.0366,0.0173,4.5337
2023-02-10,0.3817,0.0107,0.017,4.4612
2023-02-11,0.3833,0.0043,0.0165,4.3122
2023-02-12,0.3747,0.0134,0.0167,4.4626
2023-02-13,0.3703,0.0171,0.0154,4.1472
2023-02-14,0.3819,0.0195,0.0151,3.9502
2023-02-15,0.4011,0.0259,0.0155,3.8751
2023-02-16,0.3841,0.0208,0.0162,4.2251
2023-02-17,0.395,0.0191,0.017,4.3038
2023-02-18,0.3943,0.0065,0.0165,4.1955
2023-02-19,0.3863,0.0136,0.0162,4.2047
2023-02-20,0.3984,0.0316,0.0176,4.4141
2023-02-21,0.3919,0.0153,0.0176,4.4982
2023-02-22,0.3953,0.0149,0.0178,4.5047
2023-02-23,0.3882,0.0126,0.0161,4.1455
2023-02-24,0.3783,0.0185,0.0166,4.4013
2023-02-25,0.3778,0.0103,0.0171,4.5205
2023-02-26,0.3779,0.0062,0.0166,4.3832
2023-02-27,0.3785,0.0093,0.016,4.2291
2023-02-28,0.3762,0.0108,0.0154,4.0898
2023-03-01,0.3835,0.0122,0.0144,3.7568
2023-03-02,0.3772,0.0109,0.0137,3.632
2023-03-03,0.3774,0.0267,0.0142,3.7739
2023-03-04,0.3735,0.012,0.0146,3.9185
2023-03-05,0.3668,0.0121,0.0145,3.9609
2023-03-06,0.3695,0.0154,0.0134,3.6188
2023-03-07,0.3801,0.0175,0.0135,3.5592
2023-03-08,0.3889,0.0295,0.0146,3.7468
2023-03-09,0.3706,0.0337,0.0161,4.3385
2023-03-10,0.37,0.0181,0.0161,4.3378
2023-03-11,0.3638,0.0159,0.0164,4.5217
2023-03-12,0.3714,0.0242,0.0177,4.7754
2023-03-13,0.3724,0.0247,0.0188,5.0579
2023-03-14,0.3724,0.0223,0.0197,5.2785
2023-03-15,0.3589,0.0197,0.0202,5.6263
2023-03-16,0.3647,0.0108,0.0202,5.5349
2023-03-17,0.3798,0.0205,0.0197,5.1982
2023-03-18,0.3739,0.0207,0.0204,5.4465
2023-03-19,0.3857,0.0264,0.0214,5.5446
2023-03-20,0.3734,0.0206,0.0218,5.8268
2023-03-21,0.4696,0.1201,0.0291,6.1937
2023-03-22,0.4213,0.0681,0.0318,7.5582
2023-03-23,0.4438,0.0441,0.0326,7.3424
2023-03-24,0.4259,0.0299,0.0334,7.8489
2023-03-25,0.4429,0.0427,0.0353,7.9799
2023-03-26,0.4479,0.0229,0.0352,7.8701
2023-03-27,0.479,0.0463,0.0368,7.6812
2023-03-28,0.5144,0.0674,0.04,7.7788
2023-03-29,0.5425,0.0706,0.0437,8.0461
2023-03-30,0.5319,0.0366,0.0455,8.5529
2023-03-31,0.5374,0.0383,0.0468,8.702
2023-04-01,0.5095,0.0403,0.0482,9.4532
2023-04-02,0.518,0.0275,0.0482,9.3133
2023-04-03,0.4959,0.044,0.0499,10.0654
2023-04-04,0.5026,0.0207,0.0428,8.5186
2023-04-05,0.5055,0.0285,0.04,7.9101
2023-04-06,0.5028,0.0184,0.0382,7.5875
2023-04-07,0.5126,0.0185,0.0373,7.2836
2023-04-08,0.5048,0.0108,0.0351,6.9448
2023-04-09,0.5054,0.011,0.0342,6.7683
2023-04-10,0.5176,0.0199,0.0323,6.2445
2023-04-11,0.5167,0.0173,0.0287,5.5628
2023-04-12,0.5049,0.0195,0.0251,4.9699
2023-04-13,0.5125,0.0142,0.0235,4.584
2023-04-14,0.5227,0.0354,0.0233,4.4549
2023-04-15,0.5192,0.0101,0.0211,4.0694
2023-04-16,0.5209,0.0092,0.0198,3.8052
2023-04-17,0.5109,0.0144,0.0177,3.4659
2023-04-18,0.5324,0.0299,0.0184,3.4493
2023-04-19,0.4911,0.0665,0.0211,4.2921
2023-04-20,0.4752,0.0343,0.0222,4.6747
2023-04-21,0.4491,0.0389,0.0237,5.2709
2023-04-22,0.4719,0.0306,0.0251,5.3159
2023-04-23,0.4647,0.0194,0.0257,5.5274
2023-04-24,0.4611,0.0388,0.027,5.8633
2023-04-25,0.4695,0.0217,0.0273,5.8253
2023-04-26,0.4618,0.0502,0.0295,6.3973
2023-04-27,0.4667,0.0142,0.0295,6.3302
2023-04-28,0.4796,0.0193,0.0284,5.9201
2023-04-29,0.478,0.016,0.0288,6.0281
2023-04-30,0.4705,0.0132,0.0291,6.1849
2023-05-01,0.4649,0.018,0.0294,6.3147
2023-05-02,0.4645,0.0088,0.0278,5.9957
2023-05-03,0.4632,0.0158,0.0242,5.2307
2023-05-04,0.4608,0.0103,0.0225,4.8859
2023-05-05,0.4671,0.0161,0.0209,4.4714
2023-05-06,0.4582,0.0183,0.02,4.3665
2023-05-07,0.449,0.0144,0.0197,4.3764
2023-05-08,0.4283,0.0412,0.0198,4.6279
2023-05-09,0.4289,0.0106,0.019,4.4366
2023-05-10,0.4303,0.0221,0.017,3.9557
2023-05-11,0.4207,0.0191,0.0174,4.1292
2023-05-12,0.4305,0.0289,0.0181,4.1945
2023-05-13,0.424,0.0079,0.0175,4.1223
2023-05-14,0.4253,0.0107,0.0173,4.0677
2023-05-15,0.4273,0.009,0.0167,3.8982
2023-05-16,0.4425,0.0256,0.0179,4.0355
2023-05-17,0.4484,0.0241,0.0185,4.1146
2023-05-18,0.4596,0.03,0.0199,4.3205
2023-05-19,0.4675,0.0182,0.02,4.2796
2023-05-20,0.4685,0.0101,0.0194,4.1454
2023-05-21,0.4575,0.0156,0.0195,4.2639
2023-05-22,0.4618,0.0178,0.0178,3.8622
2023-05-23,0.4651,0.0089,0.0177,3.8087
2023-05-24,0.453,0.0194,0.0175,3.8679
2023-05-25,0.4538,0.012,0.017,3.7493
2023-05-26,0.4684,0.0175,0.0162,3.4586
2023-05-27,0.4714,0.014,0.0166,3.529
2023-05-28,0.482,0.0164,0.017,3.5359
2023-05-29,0.4946,0.0193,0.0178,3.5945
2023-05-30,0.5205,0.04,0.0188,3.6133
2023-05-31,0.5166,0.0271,0.019,3.682
2023-06-01,0.5065,0.0153,0.018,3.5482
2023-06-02,0.5244,0.0238,0.0184,3.5033
2023-06-03,0.5188,0.0196,0.0191,3.6719
2023-06-04,0.5359,0.0319,0.0202,3.772
2023-06-05,0.509,0.0564,0.023,4.5131
2023-06-06,0.53,0.0376,0.025,4.721
2023-06-07,0.5183,0.0314,0.0259,4.993
2023-06-08,0.5236,0.0122,0.0259,4.9452
2023-06-09,0.538,0.0213,0.0262,4.8633
2023-06-10,0.5067,0.0668,0.0299,5.908
2023-06-11,0.5208,0.0266,0.0307,5.8879
2023-06-12,0.5251,0.0194,0.0307,5.8411
2023-06-13,0.5192,0.0604,0.0321,6.1881
2023-06-14,0.4801,0.0595,0.0344,7.1741
2023-06-15,0.4801,0.0195,0.0347,7.2366
2023-06-16,0.4759,0.0275,0.035,7.356
2023-06-17,0.4794,0.0175,0.0349,7.271
2023-06-18,0.4868,0.0238,0.0343,7.0416
2023-06-19,0.4936,0.018,0.0315,6.3889
2023-06-20,0.4929,0.0251,0.0306,6.2169
2023-06-21,0.4999,0.0142,0.0294,5.884
2023-06-22,0.4938,0.0451,0.0318,6.4326
2023-06-23,0.4961,0.0183,0.0315,6.3596
2023-06-24,0.4865,0.0181,0.0281,5.7701
2023-06-25,0.4903,0.0148,0.0272,5.5535
2023-06-26,0.479,0.0218,0.0274,5.7203
2023-06-27,0.4838,0.0092,0.0237,4.9076
2023-06-28,0.4647,0.0351,0.022,4.7342
2023-06-29,0.4747,0.0161,0.0218,4.5833
2023-06-30,0.4729,0.0329,0.0221,4.6824
2023-07-01,0.4732,0.012,0.0217,4.5964
2023-07-02,0.4845,0.0264,0.0219,4.5275
2023-07-03,0.489,0.013,0.0216,4.4128
2023-07-04,0.4872,0.0119,0.0206,4.2356
2023-07-05,0.4777,0.0223,0.0212,4.4409
2023-07-06,0.4622,0.023,0.0196,4.2483
2023-07-07,0.4687,0.0133,0.0193,4.1132
2023-07-08,0.4704,0.0099,0.0187,3.9738
2023-07-09,0.468,0.0053,0.018,3.8492
2023-07-10,0.478,0.0178,0.0177,3.7089
2023-07-11,0.4753,0.0075,0.0176,3.7044
2023-07-12,0.471,0.0124,0.016,3.394
2023-07-13,0.8153,0.4685,0.0483,5.9242
2023-07-14,0.7179,0.1567,0.0571,7.9597
2023-07-15,0.7145,0.0443,0.0595,8.3205
2023-07-16,0.7468,0.088,0.0639,8.5498
2023-07-17,0.7374,0.054,0.0668,9.0559
2023-07-18,0.7779,0.0546,0.0698,8.9765
2023-07-19,0.8199,0.0862,0.0744,9.0734
2023-07-20,0.7942,0.0779,0.0783,9.8608
2023-07-21,0.7713,0.0386,0.0801,10.3878
2023-07-22,0.7331,0.0584,0.0836,11.4017
2023-07-23,0.7384,0.0376,0.0859,11.6323
2023-07-24,0.7021,0.0622,0.0891,12.6854
2023-07-25,0.7089,0.042,0.0915,12.9114
2023-07-26,0.7161,0.0386,0.0934,13.0429
2023-07-27,0.7139,0.0267,0.0618,8.6627
2023-07-28,0.712,0.0168,0.0519,7.2823
2023-07-29,0.7121,0.0117,0.0495,6.9543
2023-07-30,0.7046,0.0533,0.047,6.6765
2023-07-31,0.6976,0.0355,0.0457,6.5541
2023-08-01,0.7069,0.035,0.0443,6.2698
2023-08-02,0.685,0.0319,0.0404,5.9041
2023-08-03,0.663,0.0332,0.0373,5.6184
2023-08-04,0.6356,0.0427,0.0375,5.9067
2023-08-05,0.6288,0.0252,0.0352,5.5934
2023-08-06,0.624,0.0174,0.0337,5.4052
2023-08-07,0.6236,0.0332,0.0317,5.0765
2023-08-08,0.6418,0.0341,0.0311,4.8446
2023-08-09,0.6433,0.0348,0.0308,4.7911
2023-08-10,0.6331,0.0204,0.0304,4.7973
2023-08-11,0.6318,0.0156,0.0303,4.7936
2023-08-12,0.6276,0.0111,0.0302,4.8188
2023-08-13,0.6256,0.015,0.0275,4.3969
2023-08-14,0.6343,0.0128,0.0259,4.081
2023-08-15,0.6104,0.0548,0.0273,4.4725
2023-08-16,0.5889,0.045,0.0282,4.7947
2023-08-17,0.5064,0.1722,0.0382,7.5364
2023-08-18,0.5062,0.0401,0.038,7.5027
2023-08-19,0.5199,0.0243,0.0379,7.2926
2023-08-20,0.5384,0.0422,0.0397,7.371
2023-08-21,0.5245,0.0368,0.0399,7.6154
2023-08-22,0.521,0.0224,0.0391,7.5062
2023-08-23,0.5301,0.0211,0.0381,7.1927
2023-08-24,0.5187,0.0208,0.0382,7.3563
2023-08-25,0.5258,0.0241,0.0388,7.3724
2023-08-26,0.5231,0.0105,0.0387,7.4023
2023-08-27,0.5236,0.014,0.0387,7.3816
2023-08-28,0.5232,0.0148,0.0388,7.4145
2023-08-29,0.5398,0.0365,0.0375,6.9444
2023-08-30,0.5284,0.0188,0.0356,6.74
2023-08-31,0.511,0.0338,0.0257,5.0349
2023-09-01,0.498,0.0256,0.0247,4.9584
2023-09-02,0.4988,0.0086,0.0236,4.7256
2023-09-03,0.5047,0.0136,0.0215,4.2656
2023-09-04,0.5087,0.0164,0.0201,3.9456
2023-09-05,0.5056,0.0098,0.0192,3.7918
2023-09-06,0.5033,0.0149,0.0187,3.7212
2023-09-07,0.505,0.0104,0.018,3.5615
2023-09-08,0.505,0.0135,0.0172,3.4116
2023-09-09,0.5038,0.0035,0.0167,3.3205
2023-09-10,0.4969,0.0116,0.0166,3.3321
2023-09-11,0.4744,0.0392,0.0183,3.8575
2023-09-12,0.4804,0.0167,0.0169,3.5149
2023-09-13,0.4832,0.0174,0.0168,3.4739
2023-09-14,0.4892,0.0142,0.0154,3.1451
2023-09-15,0.5005,0.0212,0.0151,3.0113
2023-09-16,0.4998,0.0067,0.0149,2.9883
2023-09-17,0.4925,0.011,0.0148,2.9949
2023-09-18,0.503,0.0213,0.0151,3.002
2023-09-19,0.514,0.0161,0.0156,3.0253
2023-09-20,0.5212,0.0189,0.0158,3.0383
2023-09-21,0.5071,0.0213,0.0166,3.2763
2023-09-22,0.5122,0.0134,0.0166,3.2423
2023-09-23,0.5076,0.0083,0.017,3.3392
2023-09-24,0.5021,0.0134,0.0171,3.4014
2023-09-25,0.5056,0.016,0.0154,3.0501
2023-09-26,0.5019,0.0115,0.015,2.9986
2023-09-27,0.4993,0.0103,0.0145,2.9126
2023-09-28,0.5098,0.015,0.0146,2.8639
2023-09-29,0.5215,0.0433,0.0162,3.1023
2023-09-30,0.5149,0.0084,0.0163,3.1657
2023-10-01,0.5241,0.0123,0.0164,3.1278
2023-10-02,0.5123,0.0191,0.0162,3.1692
2023-10-03,0.539,0.0424,0.0181,3.3607
2023-10-04,0.5326,0.0232,0.0184,3.4588
2023-10-05,0.5227,0.0171,0.0181,3.4669
2023-10-06,0.5255,0.0129,0.0181,3.4416
2023-10-07,0.5216,0.0061,0.0179,3.4372
2023-10-08,0.5174,0.0081,0.0176,3.392
2023-10-09,0.5027,0.0326,0.0187,3.727
2023-10-10,0.4965,0.011,0.0187,3.7664
2023-10-11,0.4888,0.0189,0.0193,3.9514
2023-10-12,0.483,0.016,0.0194,4.0136
2023-10-13,0.4851,0.0121,0.0172,3.5368
2023-10-14,0.4865,0.0048,0.0169,3.4738
2023-10-15,0.4874,0.0052,0.0164,3.3633
2023-10-16,0.4978,0.0259,0.0169,3.3906
2023-10-17,0.4912,0.0135,0.0148,3.0159
2023-10-18,0.4878,0.0069,0.0137,2.7983
2023-10-19,0.5197,0.0476,0.0158,3.0457
2023-10-20,0.5149,0.0225,0.0165,3.2073
2023-10-21,0.5208,0.0216,0.0176,3.3835
2023-10-22,0.5226,0.0124,0.0179,3.4306
2023-10-23,0.5475,0.0337,0.018,3.289
2023-10-24,0.5588,0.052,0.0209,3.7465
2023-10-25,0.5552,0.0235,0.0213,3.83
2023-10-26,0.5533,0.0269,0.022,3.9839
2023-10-27,0.543,0.0263,0.0231,4.2463
2023-10-28,0.5446,0.0101,0.0234,4.3033
2023-10-29,0.5561,0.0209,0.0246,4.416
2023-10-30,0.578,0.0349,0.0252,4.3599
2023-10-31,0.5996,0.0586,0.0284,4.7401
2023-11-01,0.6085,0.0362,0.0305,5.0147
2023-11-02,0.6054,0.0397,0.0299,4.9471
2023-11-03,0.6121,0.0236,0.03,4.9058
2023-11-04,0.6149,0.0098,0.0292,4.7464
2023-11-05,0.6607,0.0493,0.0318,4.8163
2023-11-06,0.7148,0.074,0.0347,4.8545
2023-11-07,0.685,0.0655,0.0357,5.2065
2023-11-08,0.6869,0.0265,0.0359,5.2233
2023-11-09,0.6665,0.0769,0.0394,5.919
2023-11-10,0.6595,0.0352,0.0401,6.0782
2023-11-11,0.6626,0.0499,0.0429,6.4788
2023-11-12,0.6613,0.0251,0.0432,6.5369
2023-11-13,0.6702,0.1103,0.0486,7.2537
2023-11-14,0.6296,0.0757,0.0498,7.9155
2023-11-15,0.6481,0.0253,0.0491,7.5694
2023-11-16,0.6119,0.0497,0.0498,8.1339
2023-11-17,0.6133,0.0385,0.0508,8.2889
2023-11-18,0.6106,0.0254,0.0519,8.508
2023-11-19,0.6258,0.0274,0.0504,8.0514
2023-11-20,0.6122,0.0221,0.0467,7.6247
2023-11-21,0.5788,0.0453,0.0452,7.8154
2023-11-22,0.6109,0.0388,0.0461,7.5486
2023-11-23,0.6209,0.0179,0.0419,6.7483
2023-11-24,0.6212,0.0103,0.0401,6.4587
2023-11-25,0.6228,0.0081,0.0371,5.9627
2023-11-26,0.6157,0.0311,0.0376,6.1011
2023-11-27,0.6039,0.0231,0.0313,5.1889
2023-11-28,0.6107,0.0182,0.0272,4.4586
2023-11-29,0.6091,0.013,0.0264,4.3261
2023-11-30,0.6063,0.0117,0.0236,3.8984
2023-12-01,0.6125,0.0112,0.0217,3.5405
2023-12-02,0.6208,0.0119,0.0207,3.3379
2023-12-03,0.6229,0.0174,0.02,3.2119
2023-12-04,0.6245,0.0619,0.0228,3.6589
2023-12-05,0.621,0.0231,0.0213,3.4242
2023-12-06,0.64,0.0333,0.0209,3.2612
2023-12-07,0.6432,0.034,0.022,3.4237
2023-12-08,0.6721,0.0383,0.024,3.5741
2023-12-09,0.6584,0.049,0.0269,4.0922
2023-12-10,0.6617,0.0247,0.0265,4.0027
2023-12-11,0.6187,0.0628,0.0293,4.7392
2023-12-12,0.6192,0.0196,0.0294,4.7515
2023-12-13,0.6275,0.0423,0.0315,5.0222
2023-12-14,0.6316,0.0326,0.033,5.226
2023-12-15,0.6156,0.0325,0.0345,5.6089
2023-12-16,0.6203,0.0158,0.0348,5.6113
2023-12-17,0.6103,0.0153,0.0347,5.6787
2023-12-18,0.6125,0.0367,0.0329,5.3644
2023-12-19,0.6047,0.0195,0.0326,5.3911
2023-12-20,0.6171,0.0254,0.032,5.1913
2023-12-21,0.6241,0.0146,0.0307,4.9111
2023-12-22,0.6244,0.0163,0.0291,4.657
2023-12-23,0.6195,0.0143,0.0266,4.2938
2023-12-24,0.6121,0.026,0.0267,4.3609
2023-12-25,0.6462,0.0406,0.0251,3.8854
2023-12-26,0.6219,0.0469,0.0271,4.3507
2023-12-27,0.634,0.0294,0.0261,4.1224
2023-12-28,0.6346,0.0335,0.0262,4.1286
2023-12-29,0.623,0.0242,0.0256,4.1103
2023-12-30,0.6207,0.0139,0.0255,4.1037
2023-12-31,0.6156,0.023,0.026,4.227
2024-01-01,0.6294,0.0226,0.025,3.9743
2024-01-02,0.6246,0.0192,0.025,4.0014
2024-01-03,0.5823,0.1394,0.0331,5.6905
2024-01-04,0.5868,0.0246,0.0338,5.7686
2024-01-05,0.5757,0.0355,0.0352,6.118
2024-01-06,0.5679,0.019,0.0356,6.2612
2024-01-07,0.5515,0.0276,0.0357,6.4681
2024-01-08,0.5776,0.0379,0.0355,6.1424
2024-01-09,0.5669,0.0262,0.034,5.9975
2024-01-10,0.6008,0.0661,0.0366,6.0954
2024-01-11,0.6019,0.0384,0.037,6.1425
2024-01-12,0.5699,0.052,0.039,6.8358
2024-01-13,0.5747,0.0145,0.039,6.7861
2024-01-14,0.5763,0.0215,0.0389,6.7487
2024-01-15,0.5757,0.0208,0.0388,6.7334
2024-01-16,0.5757,0.0138,0.0384,6.6664
2024-01-17,0.5685,0.0152,0.0295,5.1904
2024-01-18,0.552,0.026,0.0296,5.3636
2024-01-19,0.5443,0.0321,0.0294,5.3949
2024-01-20,0.5534,0.0161,0.0292,5.2687
2024-01-21,0.5464,0.0101,0.0279,5.1075
2024-01-22,0.5275,0.0328,0.0275,5.2214
2024-01-23,0.5183,0.0356,0.0282,5.4436
2024-01-24,0.5181,0.0084,0.0241,4.6502
2024-01-25,0.5138,0.0145,0.0224,4.3569
2024-01-26,0.5323,0.0284,0.0207,3.8888
2024-01-27,0.5303,0.0087,0.0203,3.8253
2024-01-28,0.5241,0.0144,0.0198,3.7738
2024-01-29,0.5352,0.0207,0.0198,3.6942
2024-01-30,0.5107,0.0322,0.0211,4.1288
2024-01-31,0.5033,0.0291,0.0221,4.3868
2024-02-01,0.5058,0.0207,0.0217,4.2902
2024-02-02,0.5105,0.0155,0.0205,4.0185
2024-02-03,0.5186,0.021,0.0209,4.0232
2024-02-04,0.5032,0.0189,0.0215,4.2712
2024-02-05,0.5069,0.0174,0.0204,4.0231
2024-02-06,0.505,0.0131,0.0188,3.7199
2024-02-07,0.5138,0.0162,0.0193,3.7647
2024-02-08,0.5147,0.0099,0.019,3.6942
2024-02-09,0.5262,0.0142,0.018,3.4208
2024-02-10,0.5239,0.0096,0.0181,3.448
2024-02-11,0.5261,0.0144,0.0181,3.4336
2024-02-12,0.5315,0.0237,0.0183,3.4391
2024-02-13,0.5247,0.0198,0.0174,3.3148
2024-02-14,0.5378,0.0215,0.0169,3.1331
2024-02-15,0.5622,0.0399,0.0182,3.2411
2024-02-16,0.5643,0.0268,0.019,3.3721
2024-02-17,0.5496,0.0263,0.0194,3.5311
2024-02-18,0.5571,0.0154,0.0192,3.4387
2024-02-19,0.5626,0.0141,0.0189,3.3632
2024-02-20,0.5622,0.0321,0.0203,3.607
2024-02-21,0.5491,0.0303,0.0213,3.8765
2024-02-22,0.541,0.0151,0.0217,4.0032
2024-02-23,0.5342,0.0186,0.022,4.113
2024-02-24,0.545,0.0168,0.0225,4.1258
2024-02-25,0.5425,0.0069,0.0219,4.0461
2024-02-26,0.5506,0.024,0.022,3.9905
2024-02-27,0.5861,0.05,0.0241,4.1168
2024-02-28,0.575,0.0759,0.028,4.872
2024-02-29,0.5867,0.0591,0.0294,5.0086
2024-03-01,0.6013,0.0205,0.0289,4.8122
2024-03-02,0.6442,0.0508,0.0307,4.7634
2024-03-03,0.6271,0.0546,0.0335,5.3398
2024-03-04,0.6477,0.051,0.0361,5.5769
2024-03-05,0.5912,0.1299,0.0431,7.2915
2024-03-06,0.6121,0.0486,0.0444,7.2561
2024-03-07,0.627,0.033,0.0457,7.2875
2024-03-08,0.62,0.0338,0.0468,7.5449
2024-03-09,0.6197,0.0165,0.0468,7.5451
2024-03-10,0.608,0.0313,0.0485,7.977
2024-03-11,0.723,0.161,0.0583,8.0616
2024-03-12,0.688,0.0747,0.06,8.7282
2024-03-13,0.6891,0.0342,0.0571,8.282
2024-03-14,0.669,0.0699,0.0578,8.6462
2024-03-15,0.6342,0.0799,0.0621,9.7896
2024-03-16,0.6031,0.0564,0.0625,10.3608
2024-03-17,0.6191,0.038,0.0613,9.9015
2024-03-18,0.6453,0.074,0.0629,9.754
2024-03-19,0.5845,0.0777,0.0592,10.1308
2024-03-20,0.6107,0.0506,0.0594,9.7195
2024-03-21,0.6404,0.0574,0.0611,9.5409
2024-03-22,0.6115,0.0469,0.062,10.1448
2024-03-23,0.6167,0.0297,0.063,10.2122
2024-03-24,0.6325,0.0225,0.0624,9.8577
2024-03-25,0.6406,0.0366,0.0535,8.346
2024-03-26,0.6317,0.028,0.0501,7.9355
2024-03-27,0.6118,0.0294,0.0498,8.1376
2024-03-28,0.6244,0.0345,0.0473,7.5684
2024-03-29,0.6301,0.0368,0.0442,7.0114
2024-03-30,0.6212,0.0194,0.0415,6.6864
2024-03-31,0.6292,0.0097,0.0395,6.2801
2024-04-01,0.611,0.0389,0.037,6.0568
2024-04-02,0.5854,0.0395,0.0343,5.8556
2024-04-03,0.5742,0.0267,0.0326,5.6725
2024-04-04,0.5935,0.0553,0.0324,5.4628
2024-04-05,0.5871,0.0252,0.0309,5.2583
2024-04-06,0.593,0.0136,0.0297,5.012
2024-04-07,0.5944,0.0134,0.0291,4.8909
2024-04-08,0.6147,0.0384,0.0292,4.7503
2024-04-09,0.6141,0.0419,0.0302,4.9166
2024-04-10,0.6172,0.0276,0.0301,4.8711
2024-04-11,0.6086,0.0185,0.0289,4.7521
2024-04-12,0.5468,0.1091,0.0341,6.2337
2024-04-13,0.4788,0.1303,0.042,8.7734
2024-04-14,0.5033,0.0436,0.0444,8.8275
2024-04-15,0.4977,0.0378,0.0443,8.911
2024-04-16,0.4965,0.0267,0.0434,8.7484
2024-04-17,0.4951,0.0366,0.0441,8.9159
2024-04-18,0.5025,0.0201,0.0416,8.2843
2024-04-19,0.503,0.0443,0.043,8.5473
2024-04-20,0.5288,0.0319,0.0443,8.3775
2024-04-21,0.5246,0.0184,0.0447,8.5126
2024-04-22,0.556,0.0494,0.0454,8.1732
2024-04-23,0.5445,0.0161,0.0436,8.0073
2024-04-24,0.5275,0.0307,0.0438,8.3074
2024-04-25,0.5254,0.019,0.0439,8.3474
2024-04-26,0.5261,0.0218,0.0376,7.151
2024-04-27,0.5179,0.0185,0.0296,5.7223
2024-04-28,0.5103,0.0168,0.0277,5.4324
2024-04-29,0.5151,0.0189,0.0264,5.1197
2024-04-30,0.5006,0.0323,0.0268,5.3479
2024-05-01,0.5175,0.0432,0.0272,5.2643
2024-05-02,0.518,0.0178,0.0271,5.2275
2024-05-03,0.5317,0.0222,0.0255,4.7959
2024-05-04,0.5302,0.0138,0.0242,4.5657
2024-05-05,0.5296,0.0094,0.0236,4.4494
2024-05-06,0.5402,0.0456,0.0233,4.3119
2024-05-07,0.5245,0.0226,0.0238,4.5295
2024-05-08,0.5171,0.0147,0.0226,4.3733
2024-05-09,0.5209,0.0151,0.0223,4.2879
2024-05-10,0.5022,0.0239,0.0225,4.4774
2024-05-11,0.5059,0.0074,0.0217,4.288
2024-05-12,0.4993,0.0131,0.0214,4.2917
2024-05-13,0.5053,0.0255,0.0219,4.3341
2024-05-14,0.5002,0.016,0.0207,4.1455
2024-05-15,0.5188,0.0229,0.0193,3.7174
2024-05-16,0.5157,0.0105,0.0188,3.6386
2024-05-17,0.5234,0.0157,0.0183,3.4964
2024-05-18,0.5213,0.007,0.0178,3.4173
2024-05-19,0.5096,0.0173,0.0184,3.6065
2024-05-20,0.5377,0.0316,0.0174,3.232
2024-05-21,0.537,0.0252,0.0176,3.2708
2024-05-22,0.5268,0.0159,0.0177,3.3504
2024-05-23,0.5289,0.0461,0.0199,3.7558
2024-05-24,0.536,0.0207,0.0196,3.6634
2024-05-25,0.5416,0.0108,0.0199,3.6703
2024-05-26,0.5283,0.0165,0.0201,3.8087
2024-05-27,0.534,0.0173,0.0195,3.6584
2024-05-28,0.5287,0.0144,0.0194,3.6734
2024-05-29,0.5238,0.0134,0.0187,3.5782
2024-05-30,0.5186,0.0156,0.0191,3.6844
2024-05-31,0.5176,0.014,0.019,3.668
2024-06-01,0.5187,0.0045,0.0188,3.6258
2024-06-02,0.5135,0.0129,0.0185,3.6013
2024-06-03,0.5199,0.0114,0.017,3.2795
2024-06-04,0.5257,0.0121,0.0161,3.0653
2024-06-05,0.5258,0.0086,0.0156,2.9655
2024-06-06,0.5215,0.0117,0.0131,2.5188
2024-06-07,0.4991,0.0772,0.0172,3.4405
2024-06-08,0.4926,0.0111,0.0172,3.4902
2024-06-09,0.4986,0.0083,0.0166,3.3308
2024-06-10,0.4969,0.0127,0.0163,3.276
2024-06-11,0.4802,0.0263,0.0171,3.567
2024-06-12,0.4916,0.024,0.0179,3.6383
2024-06-13,0.4769,0.0161,0.0179,3.7579
2024-06-14,0.4746,0.0213,0.0184,3.886
2024-06-15,0.4908,0.0313,0.0204,4.1477
2024-06-16,0.4891,0.0119,0.0203,4.1476
2024-06-17,0.5047,0.0375,0.0221,4.3887
2024-06-18,0.491,0.0406,0.0242,4.9258
2024-06-19,0.4933,0.0128,0.0245,4.9637
2024-06-20,0.4888,0.014,0.0246,5.043
2024-06-21,0.4889,0.0162,0.0203,4.1507
2024-06-22,0.4866,0.0056,0.0199,4.0896
2024-06-23,0.4797,0.015,0.0204,4.2482
2024-06-24,0.474,0.0205,0.0209,4.4168
2024-06-25,0.4757,0.0071,0.0196,4.1127
2024-06-26,0.4698,0.0131,0.0188,3.9987
2024-06-27,0.4753,0.0114,0.0184,3.8818
2024-06-28,0.4716,0.0119,0.0178,3.7698
2024-06-29,0.4727,0.0052,0.0159,3.3667
2024-06-30,0.4761,0.0083,0.0157,3.2886
2024-07-01,0.477,0.0095,0.0137,2.8631
2024-07-02,0.4853,0.0129,0.0117,2.4065
2024-07-03,0.4672,0.0264,0.0126,2.7076
2024-07-04,0.4329,0.0384,0.0144,3.3248
2024-07-05,0.4251,0.0512,0.0169,3.9739
2024-07-06,0.4488,0.0262,0.0184,4.0919
2024-07-07,0.4195,0.0313,0.0195,4.6552
2024-07-08,0.4316,0.0406,0.021,4.8573
2024-07-09,0.4356,0.0128,0.0214,4.9062
2024-07-10,0.4388,0.0116,0.0213,4.846
2024-07-11,0.4491,0.021,0.0219,4.8876
2024-07-12,0.4745,0.0335,0.0235,4.9511
2024-07-13,0.5257,0.0924,0.0297,5.6537
2024-07-14,0.5205,0.0264,0.031,5.9586
2024-07-15,0.5372,0.0201,0.0318,5.9143
2024-07-16,0.5793,0.0636,0.0354,6.1096
2024-07-17,0.626,0.0595,0.0378,6.0315
2024-07-18,0.5697,0.0794,0.0407,7.1416
2024-07-19,0.5733,0.0467,0.0404,7.0407
2024-07-20,0.5937,0.034,0.0409,6.8926
2024-07-21,0.5984,0.0359,0.0413,6.8934
2024-07-22,0.608,0.0374,0.041,6.7469
2024-07-23,0.5975,0.0373,0.0428,7.1584
2024-07-24,0.6179,0.0412,0.0449,7.2642
2024-07-25,0.5996,0.0446,0.0466,7.7671
2024-07-26,0.6034,0.0233,0.0458,7.5974
2024-07-27,0.5956,0.0258,0.0411,6.8982
2024-07-28,0.6012,0.0251,0.041,6.8185
2024-07-29,0.6019,0.0203,0.041,6.8129
2024-07-30,0.6277,0.0426,0.0395,6.294
2024-07-31,0.623,0.0369,0.0379,6.0823
2024-08-01,0.5964,0.0623,0.0367,6.1488
2024-08-02,0.5607,0.0506,0.0369,6.59
2024-08-03,0.5558,0.0371,0.0372,6.6879
2024-08-04,0.5228,0.0454,0.0379,7.2399
2024-08-05,0.4889,0.0938,0.0419,8.5659
2024-08-06,0.5062,0.0311,0.0414,8.1856
2024-08-07,0.6002,0.1512,0.0493,8.2127
2024-08-08,0.6166,0.0639,0.0507,8.2179
2024-08-09,0.5805,0.0589,0.0532,9.167
2024-08-10,0.5841,0.0243,0.0531,9.0921
2024-08-11,0.5528,0.0483,0.0548,9.9067
2024-08-12,0.5684,0.0294,0.0554,9.7492
2024-08-13,0.577,0.0208,0.0539,9.334
2024-08-14,0.5687,0.0187,0.0526,9.2416
2024-08-15,0.5607,0.0238,0.0498,8.883
2024-08-16,0.5638,0.0188,0.0475,8.4313
2024-08-17,0.5665,0.0099,0.0456,8.0482
2024-08-18,0.5631,0.022,0.0439,7.7999
2024-08-19,0.5985,0.0483,0.0407,6.7956
2024-08-20,0.5937,0.0275,0.0404,6.8072
2024-08-21,0.5999,0.0216,0.0312,5.1937
2024-08-22,0.5976,0.0126,0.0275,4.6005
2024-08-23,0.6109,0.0251,0.0251,4.1052
2024-08-24,0.6127,0.0267,0.0253,4.1211
2024-08-25,0.6,0.019,0.0232,3.8595
2024-08-26,0.5874,0.0239,0.0228,3.8754
2024-08-27,0.5666,0.0475,0.0247,4.3543
2024-08-28,0.5693,0.0287,0.0254,4.4591
2024-08-29,0.5619,0.0197,0.0251,4.4657
2024-08-30,0.5667,0.0216,0.0253,4.4632
2024-08-31,0.5662,0.0097,0.0253,4.4646
2024-09-01,0.5472,0.0233,0.0254,4.6366
2024-09-02,0.5677,0.0245,0.0237,4.1697
2024-09-03,0.5572,0.0159,0.0228,4.0996
2024-09-04,0.5579,0.0322,0.0236,4.2301
2024-09-05,0.5444,0.0199,0.0241,4.4308
2024-09-06,0.5211,0.0447,0.0255,4.8976
2024-09-07,0.5248,0.0132,0.0246,4.6793
2024-09-08,0.5295,0.0108,0.024,4.5272
2024-09-09,0.5395,0.0162,0.0234,4.3413
2024-09-10,0.5408,0.0091,0.0207,3.8237
2024-09-11,0.5348,0.0182,0.0199,3.7264
2024-09-12,0.5626,0.055,0.0224,3.9904
2024-09-13,0.5728,0.0189,0.0223,3.8857
2024-09-14,0.5956,0.0288,0.0236,3.966
2024-09-15,0.5706,0.0272,0.0239,4.1886
2024-09-16,0.5866,0.0318,0.0244,4.1632
2024-09-17,0.5839,0.0145,0.0243,4.1653
2024-09-18,0.5852,0.0238,0.0237,4.0536
2024-09-19,0.5868,0.0135,0.0233,3.9646
2024-09-20,0.5851,0.0167,0.0213,3.6343
2024-09-21,0.5976,0.0328,0.0227,3.7926
2024-09-22,0.5871,0.0275,0.0239,4.0636
2024-09-23,0.5847,0.0173,0.0239,4.0937
2024-09-24,0.5911,0.0113,0.0241,4.0759
2024-09-25,0.5831,0.0133,0.0237,4.0718
2024-09-26,0.5905,0.0225,0.0214,3.6277
2024-09-27,0.5888,0.0148,0.0211,3.5884
2024-09-28,0.6138,0.0403,0.022,3.5761
2024-09-29,0.6412,0.0573,0.0241,3.7586
2024-09-30,0.6114,0.046,0.0251,4.1077
2024-10-01,0.5967,0.0564,0.0281,4.7104
2024-10-02,0.5383,0.0802,0.0321,5.9699
2024-10-03,0.5217,0.0377,0.0339,6.4911
2024-10-04,0.534,0.029,0.0347,6.5062
2024-10-05,0.5294,0.0092,0.0331,6.2443
2024-10-06,0.5336,0.0093,0.0318,5.9515
2024-10-07,0.5286,0.0173,0.0318,6.0078
2024-10-08,0.531,0.0149,0.032,6.0291
2024-10-09,0.5245,0.0136,0.032,6.1079
2024-10-10,0.5305,0.0222,0.032,6.0347
2024-10-11,0.5388,0.0123,0.0318,5.9086
2024-10-12,0.5393,0.0079,0.0295,5.474
2024-10-13,0.5321,0.0143,0.0265,4.9709
2024-10-14,0.5483,0.0242,0.0249,4.54
2024-10-15,0.5417,0.0241,0.0226,4.1694
2024-10-16,0.5482,0.0163,0.018,3.2874
2024-10-17,0.5441,0.0247,0.0171,3.1415
2024-10-18,0.5465,0.0135,0.016,2.9251
2024-10-19,0.544,0.0094,0.016,2.9412
2024-10-20,0.5482,0.0124,0.0162,2.959
2024-10-21,0.5449,0.0199,0.0164,3.011
2024-10-22,0.5339,0.0207,0.0168,3.1507
2024-10-23,0.5258,0.0224,0.0175,3.3188
2024-10-24,0.532,0.0097,0.0166,3.1122
2024-10-25,0.5022,0.0462,0.019,3.7791
2024-10-26,0.5134,0.0165,0.0196,3.8163
2024-10-27,0.5168,0.0072,0.0191,3.6931
2024-10-28,0.5195,0.0104,0.0181,3.4841
2024-10-29,0.5284,0.012,0.0172,3.2619
2024-10-30,0.5229,0.0091,0.0167,3.1978
2024-10-31,0.5095,0.0207,0.0164,3.2259
2024-11-01,0.5131,0.0219,0.017,3.3202
2024-11-02,0.5103,0.0097,0.0171,3.3426
2024-11-03,0.503,0.0194,0.0176,3.4905
2024-11-04,0.5035,0.019,0.0175,3.4743
2024-11-05,0.514,0.0172,0.0172,3.3546
2024-11-06,0.5418,0.0329,0.018,3.3209
2024-11-07,0.5556,0.0408,0.0202,3.6383
2024-11-08,0.5537,0.0187,0.0183,3.296
2024-11-09,0.5593,0.0184,0.0184,3.2873
2024-11-10,0.5884,0.0632,0.0224,3.8045
2024-11-11,0.6207,0.0627,0.0261,4.2084
2024-11-12,0.704,0.143,0.0355,5.0396
2024-11-13,0.6898,0.108,0.0425,6.1674
2024-11-14,0.7736,0.1651,0.0529,6.8326
2024-11-15,0.8922,0.1575,0.0625,7.01
2024-11-16,1.1209,0.392,0.0899,8.0159
2024-11-17,1.0543,0.1577,0.0997,9.4592
2024-11-18,1.1137,0.1322,0.1078,9.6807
2024-11-19,1.1003,0.0792,0.1122,10.2011
2024-11-20,1.1041,0.0954,0.1167,10.5703
2024-11-21,1.247,0.1869,0.1271,10.1959
2024-11-22,1.4726,0.253,0.1439,9.7704
2024-11-23,1.4685,0.2267,0.1588,10.8108
2024-11-24,1.4331,0.2355,0.1711,11.9367
2024-11-25,1.4142,0.1843,0.1797,12.7104
2024-11-26,1.3984,0.1755,0.1821,13.02
2024-11-27,1.4696,0.1693,0.1864,12.6871
2024-11-28,1.5421,0.1173,0.183,11.8693
2024-11-29,1.8006,0.2916,0.1926,10.6972
2024-11-30,1.9513,0.194,0.1785,9.1463
2024-12-01,2.2937,0.5025,0.2031,8.8547
2024-12-02,2.7245,0.6712,0.2416,8.8677
2024-12-03,2.5102,0.6592,0.283,11.2751
2024-12-04,2.3574,0.4,0.3048,12.9289
2024-12-05,2.2446,0.3199,0.3143,14.0019
2024-12-06,2.4257,0.2385,0.3132,12.9138
2024-12-07,2.6099,0.2356,0.3139,12.0267
2024-12-08,2.6013,0.1626,0.3087,11.8663
2024-12-09,2.2124,0.6064,0.3388,15.315
2024-12-10,2.3709,0.52,0.3634,15.329
2024-12-11,2.3941,0.24,0.3685,15.3914
2024-12-12,2.3384,0.176,0.3727,15.9373
2024-12-13,2.4217,0.1948,0.3658,15.1036
2024-12-14,2.4005,0.1771,0.3646,15.1867
2024-12-15,2.4469,0.1053,0.3362,13.7393
2024-12-16,2.4841,0.2539,0.3064,12.3336
2024-12-17,2.5673,0.288,0.2799,10.9011
2024-12-18,2.3103,0.3443,0.2759,11.9416
2024-12-19,2.239,0.2722,0.2725,12.1697
2024-12-20,2.2793,0.3949,0.2837,12.4446
2024-12-21,2.238,0.1943,0.2807,12.5424
2024-12-22,2.2031,0.1334,0.2786,12.6465
2024-12-23,2.2617,0.1481,0.2459,10.8714
2024-12-24,2.3238,0.1369,0.2185,9.4033
2024-12-25,2.2973,0.071,0.2064,8.9863
2024-12-26,2.1559,0.1887,0.2074,9.6178
2024-12-27,2.1466,0.123,0.2022,9.4205
2024-12-28,2.1843,0.0733,0.1948,8.9185
2024-12-29,2.0942,0.1265,0.1963,9.3745
2024-12-30,2.0587,0.1572,0.1894,9.2007
2024-12-31,2.0836,0.1365,0.1786,8.5714
2025-01-01,2.3328,0.2734,0.1735,7.4386
2025-01-02,2.4024,0.1225,0.1628,6.778
2025-01-03,2.4547,0.0832,0.1406,5.7266
2025-01-04,2.4201,0.1091,0.1345,5.557
2025-01-05,2.3994,0.1012,0.1322,5.5091
2025-01-06,2.42,0.091,0.1281,5.2937
2025-01-07,2.2712,0.2111,0.1334,5.8739
2025-01-08,2.3731,0.1985,0.1425,6.0054
2025-01-09,2.2722,0.1605,0.1405,6.1834
2025-01-10,2.3414,0.1234,0.1405,6.0019
2025-01-11,2.5764,0.2787,0.1552,6.0239
2025-01-12,2.5046,0.1135,0.1543,6.1595
2025-01-13,2.5232,0.2337,0.1597,6.3307
2025-01-14,2.6673,0.1874,0.1634,6.125
2025-01-15,3.1429,0.5508,0.1832,5.8286
2025-01-16,3.2451,0.4772,0.2085,6.4257
2025-01-17,3.2922,0.1786,0.2153,6.5408
2025-01-18,3.2697,0.2416,0.2248,6.8752
2025-01-19,2.9587,0.4652,0.2508,8.4767
2025-01-20,3.1053,0.4605,0.2772,8.9264
2025-01-21,3.1738,0.2336,0.2788,8.7844
2025-01-22,3.1803,0.1617,0.2762,8.6838
2025-01-23,3.1194,0.1494,0.2754,8.8279
2025-01-24,3.1009,0.1481,0.2771,8.9375
2025-01-25,3.108,0.0662,0.262,8.4287
2025-01-26,3.0223,0.1328,0.2633,8.7133
2025-01-27,3.0552,0.4028,0.2754,9.0148
2025-01-28,3.0572,0.2078,0.2769,9.0566
2025-01-29,3.0683,0.169,0.2496,8.135
2025-01-30,3.1276,0.1078,0.2232,7.1371
2025-01-31,3.0361,0.1303,0.2198,7.2386
2025-02-01,2.8778,0.2446,0.22,7.6442
2025-02-02,2.58,0.4956,0.2222,8.6107
2025-02-03,2.7001,1.0103,0.2614,9.6822
2025-02-04,2.5274,0.3665,0.2709,10.7194
2025-02-05,2.381,0.2308,0.2759,11.5858
2025-02-06,2.325,0.1927,0.2789,11.9978
2025-02-07,2.3968,0.2765,0.2881,12.0211
2025-02-08,2.419,0.0866,0.2896,11.971
2025-02-09,2.3928,0.1966,0.2941,12.2925
2025-02-10,2.4237,0.1498,0.2761,11.3902
2025-02-11,2.4131,0.1582,0.2725,11.2934
2025-02-12,2.4734,0.1639,0.2722,11.0034
2025-02-13,2.5599,0.1907,0.2781,10.8629
2025-02-14,2.7384,0.3056,0.2906,10.612
2025-02-15,2.7619,0.1205,0.2817,10.2008
2025-02-16,2.7283,0.1175,0.2547,9.3365
2025-02-17,2.6599,0.1573,0.1938,7.286
2025-02-18,2.5628,0.2006,0.1819,7.0997
2025-02-19,2.7378,0.2349,0.1822,6.6565
2025-02-20,2.6877,0.0819,0.1743,6.4862
2025-02-21,2.5721,0.2084,0.1695,6.5886
2025-02-22,2.574,0.0594,0.1675,6.5082
2025-02-23,2.5763,0.0815,0.1593,6.1833
2025-02-24,2.2783,0.3754,0.1754,7.6993
2025-02-25,2.3222,0.3026,0.1857,7.998
2025-02-26,2.1982,0.1807,0.1869,8.5037
2025-02-27,2.1985,0.1124,0.1813,8.2482
2025-02-28,2.1453,0.2507,0.1774,8.2699
2025-03-01,2.1916,0.0985,0.1758,8.0235
2025-03-02,2.9396,0.8255,0.2264,7.7022
2025-03-03,2.3873,0.67,0.263,11.0181
2025-03-04,2.4543,0.3265,0.272,11.0838
2025-03-05,2.4998,0.1329,0.2647,10.5906
2025-03-06,2.6001,0.1754,0.2714,10.4389
2025-03-07,2.3855,0.2782,0.2764,11.587
2025-03-08,2.3261,0.1093,0.28,12.0361
2025-03-09,2.1387,0.268,0.2933,13.7136
2025-03-10,2.0216,0.2688,0.2857,14.1313
2025-03-11,2.1711,0.3138,0.2865,13.1951
2025-03-12,2.2396,0.1436,0.2838,12.6732
2025-03-13,2.2527,0.1333,0.2853,12.6658
2025-03-14,2.3564,0.1522,0.2783,11.8098
2025-03-15,2.3911,0.1226,0.28,11.7104
2025-03-16,2.2938,0.1432,0.2313,10.0825
2025-03-17,2.3382,0.0873,0.1897,8.1109
2025-03-18,2.2851,0.1174,0.1747,7.6458
2025-03-19,2.5469,0.3247,0.1884,7.3978
2025-03-20,2.4361,0.1748,0.1884,7.7325
2025-03-21,2.3809,0.1105,0.1764,7.4087
2025-03-22,2.3711,0.0576,0.1727,7.2835
2025-03-23,2.4393,0.0759,0.159,6.5174
2025-03-24,2.4501,0.091,0.1463,5.9703
2025-03-25,2.4492,0.0712,0.1289,5.265
2025-03-26,2.3494,0.1514,0.1295,5.5123
2025-03-27,2.341,0.0879,0.1263,5.3936
2025-03-28,2.2073,0.1898,0.1289,5.842
2025-03-29,2.1351,0.166,0.1321,6.1847
2025-03-30,2.1369,0.1065,0.1294,6.0568
2025-03-31,2.0899,0.1177,0.1316,6.297
2025-04-01,2.1387,0.1349,0.1329,6.2117
2025-04-02,2.0237,0.2489,0.1274,6.2972
2025-04-03,2.0648,0.122,0.1237,5.9892
2025-04-04,2.1302,0.1466,0.1262,5.9263
2025-04-05,2.1442,0.0625,0.1266,5.904
2025-04-06,1.9218,0.2967,0.1424,7.4079
2025-04-07,1.8987,0.3975,0.1643,8.651
2025-04-08,1.7963,0.198,0.1733,9.6484
2025-04-09,2.0529,0.3679,0.1888,9.1957
2025-04-10,1.9658,0.1349,0.1921,9.7739
2025-04-11,2.0225,0.1172,0.187,9.2435
2025-04-12,2.1598,0.1829,0.1882,8.7118
2025-04-13,2.1196,0.1674,0.1925,9.0822
2025-04-14,2.1275,0.0766,0.1896,8.9105
2025-04-15,2.0842,0.1016,0.1872,8.9815
2025-04-16,2.0834,0.0945,0.1762,8.4556
2025-04-17,2.0673,0.0622,0.1719,8.3148
2025-04-18,2.0619,0.0462,0.1647,7.9888
2025-04-19,2.0877,0.0389,0.163,7.8093
2025-04-20,2.0787,0.0557,0.1458,7.015
2025-04-21,2.0855,0.0815,0.1232,5.9099
2025-04-22,2.2139,0.1866,0.1224,5.5303
2025-04-23,2.2184,0.1108,0.1041,4.6913
2025-04-24,2.2049,0.1188,0.1029,4.6679
2025-04-25,2.1812,0.0559,0.0985,4.5178
2025-04-26,2.1912,0.0687,0.0904,4.1249
2025-04-27,2.252,0.1367,0.0882,3.9162
2025-04-28,2.2949,0.1446,0.093,4.0546
2025-04-29,2.238,0.093,0.0924,4.1303
2025-04-30,2.1908,0.1353,0.0953,4.3523
2025-05-01,2.2123,0.0699,0.0959,4.3349
2025-05-02,2.2093,0.0491,0.0961,4.3501
2025-05-03,2.1872,0.044,0.0965,4.4107
2025-05-04,2.156,0.0678,0.0973,4.5146
2025-05-05,2.1306,0.0933,0.0982,4.608
2025-05-06,2.155,0.0818,0.0907,4.2085
2025-05-07,2.1265,0.0677,0.0876,4.1201
2025-05-08,2.3272,0.2121,0.0943,4.0512
2025-05-09,2.3439,0.1446,0.1006,4.2926
2025-05-10,2.4711,0.1411,0.1058,4.2809
2025-05-11,2.367,0.1561,0.1072,4.5277
2025-05-12,2.5439,0.3034,0.1185,4.6588
2025-05-13,2.5829,0.1838,0.125,4.8395
2025-05-14,2.5503,0.1322,0.1248,4.8927
2025-05-15,2.3856,0.2194,0.1355,5.6781
2025-05-16,2.3798,0.0928,0.1386,5.8231
2025-05-17,2.3531,0.0908,0.1419,6.0313
2025-05-18,2.428,0.1177,0.1455,5.992
2025-05-19,2.3803,0.1583,0.1501,6.3071
2025-05-20,2.3565,0.0949,0.1511,6.4105
2025-05-21,2.3952,0.098,0.1532,6.3973
2025-05-22,2.4311,0.0674,0.1429,5.8777
2025-05-23,2.2966,0.1961,0.1466,6.3821
2025-05-24,2.3303,0.0741,0.1418,6.0844
2025-05-25,2.3417,0.079,0.1363,5.8196
2025-05-26,2.3103,0.0635,0.1191,5.157
2025-05-27,2.3168,0.0872,0.1122,4.8447
2025-05-28,2.2742,0.0967,0.1097,4.824
2025-05-29,2.2442,0.0745,0.0994,4.4273
2025-05-30,2.1398,0.1226,0.1015,4.7428
2025-05-31,2.1738,0.1271,0.1041,4.7879
2025-06-01,2.1792,0.0648,0.1003,4.6026
2025-06-02,2.1965,0.0688,0.0939,4.2753
2025-06-03,2.2446,0.0983,0.0941,4.1945
2025-06-04,2.2009,0.0707,0.0922,4.1892
2025-06-05,2.0936,0.1674,0.0993,4.7451
2025-06-06,2.1598,0.1091,0.0931,4.3119
2025-06-07,2.1769,0.0437,0.091,4.1783
2025-06-08,2.267,0.1327,0.0948,4.1814
2025-06-09,2.3211,0.107,0.0979,4.2178
2025-06-10,2.3074,0.0675,0.0965,4.1819
2025-06-11,2.2704,0.0855,0.0957,4.2148
2025-06-12,2.1899,0.1027,0.0977,4.4617
2025-06-13,2.1472,0.109,0.0967,4.5052
2025-06-14,2.1394,0.0708,0.0927,4.3337
2025-06-15,2.1655,0.0384,0.0908,4.1943
2025-06-16,2.238,0.1858,0.0992,4.4319
2025-06-17,2.159,0.1155,0.1004,4.651
2025-06-18,2.1705,0.0627,0.0998,4.6
2025-06-19,2.1648,0.0414,0.0908,4.1964
2025-06-20,2.1194,0.0945,0.0898,4.237
2025-06-21,2.0632,0.145,0.097,4.7032
2025-06-22,2.0172,0.1815,0.1005,4.9832
2025-06-23,2.1584,0.2091,0.1078,4.9951
2025-06-24,2.1898,0.0849,0.1091,4.9802
2025-06-25,2.1859,0.06,0.1072,4.9058
2025-06-26,2.1054,0.1171,0.1083,5.1422
2025-06-27,2.1419,0.0885,0.1068,4.9862
2025-06-28,2.1854,0.0743,0.107,4.8984
2025-06-29,2.2061,0.0444,0.1075,4.8719
2025-06-30,2.2362,0.1621,0.1058,4.7306
2025-07-01,2.172,0.1062,0.1051,4.8398
2025-07-02,2.2336,0.1347,0.1103,4.9366
2025-07-03,2.2569,0.0892,0.1137,5.0369
2025-07-04,2.2205,0.0718,0.1121,5.0465
2025-07-05,2.2178,0.0325,0.104,4.6903
2025-07-06,2.2709,0.0814,0.0969,4.2658
2025-07-07,2.2708,0.0985,0.089,3.9181
2025-07-08,2.3108,0.0738,0.0882,3.8159
2025-07-09,2.4038,0.1313,0.0933,3.8802
2025-07-10,2.5471,0.1747,0.0974,3.8234
2025-07-11,2.7322,0.4631,0.1241,4.5437
2025-07-12,2.7395,0.185,0.1321,4.8202
2025-07-13,2.8361,0.1717,0.1411,4.9767
2025-07-14,2.9582,0.2143,0.1449,4.8973
2025-07-15,2.919,0.1544,0.1483,5.081
2025-07-16,3.038,0.2226,0.1546,5.0886
2025-07-17,3.4814,0.5622,0.1884,5.411
2025-07-18,3.4135,0.3168,0.2059,6.0313
2025-07-19,3.4244,0.1308,0.2129,6.2171
2025-07-20,3.454,0.1723,0.2194,6.3518
2025-07-21,3.5495,0.2419,0.2296,6.4695
2025-07-22,3.5504,0.1569,0.2356,6.6351
2025-07-23,3.1838,0.5319,0.2642,8.2978
2025-07-24,3.1453,0.3096,0.2738,8.7057
2025-07-25,3.1423,0.1637,0.2524,8.0335
2025-07-26,3.1662,0.1093,0.247,7.8021
2025-07-27,3.2389,0.0951,0.2416,7.458
2025-07-28,3.1235,0.2235,0.2422,7.7546
2025-07-29,3.128,0.1323,0.2406,7.693
2025-07-30,3.0966,0.1611,0.2362,7.6291
2025-07-31,3.0224,0.1676,0.2081,6.8838
2025-08-01,2.9613,0.167,0.1974,6.6645
2025-08-02,2.7695,0.2819,0.2082,7.5158
2025-08-03,2.948,0.2345,0.2126,7.2114
2025-08-04,3.0716,0.1587,0.2066,6.7278
2025-08-05,2.9623,0.1908,0.2091,7.0577
2025-08-06,2.9908,0.1173,0.1795,6.0003
2025-08-07,3.3197,0.3697,0.1837,5.5351
2025-08-08,3.2859,0.1774,0.1847,5.6219
2025-08-09,3.2259,0.1392,0.1869,5.7926
2025-08-10,3.187,0.1274,0.1892,5.9357
2025-08-11,3.1295,0.2166,0.1887,6.029
2025-08-12,3.2676,0.2026,0.1937,5.9279
2025-08-13,3.2744,0.1324,0.1917,5.853
2025-08-14,3.0792,0.3597,0.2054,6.6696
2025-08-15,3.0779,0.1403,0.2035,6.6105
2025-08-16,3.1055,0.0845,0.1894,6.0977
2025-08-17,3.0877,0.0699,0.1776,5.7521
2025-08-18,3.0616,0.1565,0.1775,5.796
2025-08-19,2.8608,0.232,0.1804,6.3057
2025-08-20,2.9512,0.1712,0.1842,6.243
2025-08-21,2.8519,0.1164,0.1662,5.8259
2025-08-22,3.0744,0.323,0.1766,5.7426
2025-08-23,3.0485,0.1059,0.1742,5.7133
2025-08-24,3.0258,0.141,0.1751,5.7883
2025-08-25,2.8584,0.2312,0.1762,6.1638
2025-08-26,3.0123,0.2358,0.1786,5.9276
2025-08-27,2.9688,0.0833,0.1751,5.8963
2025-08-28,2.9665,0.0831,0.1553,5.2349
2025-08-29,2.8195,0.2034,0.1598,5.6677
2025-08-30,2.8181,0.0745,0.1591,5.6451
2025-08-31,2.7757,0.0986,0.1611,5.8052
2025-09-01,2.7589,0.1415,0.1601,5.8017
2025-09-02,2.862,0.1157,0.1518,5.3025
2025-09-03,2.8443,0.0757,0.1449,5.0957
2025-09-04,2.7946,0.0787,0.1422,5.0899
2025-09-05,2.8147,0.1069,0.1268,4.5052
2025-09-06,2.8098,0.0362,0.1218,4.3358
2025-09-07,2.877,0.1193,0.1203,4.1807
2025-09-08,2.9697,0.1337,0.1133,3.8157
2025-09-09,2.9474,0.1028,0.1038,3.5222
2025-09-10,2.9834,0.0883,0.1042,3.4917
2025-09-11,3.0398,0.0983,0.1053,3.4626
2025-09-12,3.1054,0.1196,0.0993,3.1967
2025-09-13,3.1193,0.0968,0.1009,3.2336
2025-09-14,3.0279,0.1168,0.1022,3.3741
2025-09-15,2.9969,0.1137,0.1002,3.3427
2025-09-16,3.0376,0.0944,0.0987,3.2479
2025-09-17,3.0841,0.1265,0.1023,3.3165
2025-09-18,3.0735,0.0839,0.1027,3.3401
2025-09-19,2.9901,0.1157,0.1033,3.4543
2025-09-20,2.975,0.0439,0.1038,3.4903
2025-09-21,2.9701,0.0612,0.0997,3.3563
2025-09-22,2.8526,0.278,0.11,3.8559
2025-09-23,2.8247,0.0973,0.1096,3.8801
2025-09-24,2.9257,0.2072,0.1181,4.0364
2025-09-25,2.7435,0.2202,0.1268,4.6218
2025-09-26,2.7835,0.1106,0.1262,4.5323
2025-09-27,2.8047,0.0668,0.124,4.4217
2025-09-28,2.8674,0.1014,0.1229,4.2866
2025-09-29,2.8801,0.0835,0.1208,4.1928
2025-09-30,2.8468,0.0945,0.1208,4.2421
2025-10-01,2.9485,0.1475,0.1223,4.1467
2025-10-02,3.0389,0.1595,0.1277,4.201
2025-10-03,3.0401,0.0907,0.1259,4.1406
2025-10-04,2.9685,0.1132,0.1308,4.4072
2025-10-05,2.9697,0.1248,0.1354,4.5584
2025-10-06,2.9883,0.0955,0.1223,4.0938
2025-10-07,2.852,0.1523,0.1263,4.4272
2025-10-08,2.8797,0.0945,0.1182,4.1051
2025-10-09,2.8021,0.1087,0.1103,3.9345
2025-10-10,2.3704,1.5829,0.2154,9.0877
2025-10-11,2.3819,0.2061,0.2254,9.4615
2025-10-12,2.5282,0.272,0.2376,9.396
2025-10-13,2.6052,0.1335,0.2411,9.2554
2025-10-14,2.5033,0.232,0.2509,10.0245
2025-10-15,2.4109,0.1721,0.2527,10.4816
2025-10-16,2.328,0.1832,0.2544,10.9275
2025-10-17,2.2936,0.2099,0.2629,11.4626
2025-10-18,2.3596,0.1021,0.2621,11.1084
2025-10-19,2.3908,0.1018,0.2605,10.8947
2025-10-20,2.4948,0.1982,0.2678,10.7346
2025-10-21,2.4222,0.1312,0.2663,10.9941
2025-10-22,2.3647,0.112,0.2676,11.3143
2025-10-23,2.3947,0.0642,0.2644,11.0399
2025-10-24,2.5103,0.1297,0.1606,6.3965
2025-10-25,2.5959,0.1521,0.1567,6.037
2025-10-26,2.6461,0.0704,0.1423,5.3783
2025-10-27,2.634,0.0962,0.1397,5.3018
2025-10-28,2.6034,0.1212,0.1317,5.0601
2025-10-29,2.5502,0.127,0.1285,5.0394
2025-10-30,2.4393,0.2175,0.131,5.3689
2025-10-31,2.5097,0.1235,0.1248,4.9724
2025-11-01,2.5053,0.0473,0.1209,4.8249
2025-11-02,2.5267,0.0769,0.1191,4.7137
2025-11-03,2.3096,0.2691,0.1242,5.376
2025-11-04,2.2053,0.299,0.1361,6.1738
2025-11-05,2.3432,0.2751,0.1478,6.3076
2025-11-06,2.213,0.2364,0.1601,7.2345
2025-11-07,2.3154,0.2193,0.1665,7.191
2025-11-08,2.2863,0.0957,0.1625,7.1063
2025-11-09,2.3662,0.1558,0.1686,7.1241
2025-11-10,2.526,0.2346,0.1785,7.0648
2025-11-11,2.3915,0.1913,0.1835,7.6715
2025-11-12,2.3879,0.1325,0.1839,7.6995
2025-11-13,2.3225,0.2507,0.1862,8.0185
2025-11-14,2.2443,0.116,0.1857,8.274
2025-11-15,2.2372,0.0923,0.1889,8.4439
2025-11-16,2.2149,0.1242,0.1923,8.6815
2025-11-17,2.1637,0.1931,0.1869,8.636
2025-11-18,2.2172,0.1349,0.1751,7.899
2025-11-19,2.1098,0.1952,0.1694,8.0306
2025-11-20,1.9999,0.1755,0.1651,8.2543
2025-11-21,1.9509,0.2099,0.1644,8.4272
2025-11-22,1.9509,0.0781,0.1631,8.3628
2025-11-23,2.0491,0.1349,0.1617,7.8892
2025-11-24,2.2276,0.263,0.1637,7.3481
2025-11-25,2.2024,0.117,0.1584,7.1912
2025-11-26,2.2233,0.11,0.1568,7.0513
2025-11-27,2.1999,0.062,0.1433,6.5136
2025-11-28,2.1795,0.1187,0.1435,6.5834
2025-11-29,2.2009,0.0565,0.1409,6.4032
2025-11-30,2.155,0.0626,0.1365,6.3354
2025-12-01,2.0297,0.1774,0.1354,6.6713
2025-12-02,2.1532,0.1881,0.1392,6.4651
2025-12-03,2.1976,0.0776,0.1308,5.9523
2025-12-04,2.096,0.1455,0.1287,6.1386
2025-12-05,2.0344,0.1005,0.1208,5.9403
2025-12-06,2.0309,0.035,0.1178,5.799
2025-12-07,2.0442,0.1215,0.1168,5.7144
2025-12-08,2.0724,0.092,0.1046,5.0473
2025-12-09,2.1062,0.1361,0.106,5.0311
2025-12-10,2.0418,0.0762,0.1035,5.0715
2025-12-11,2.034,0.0803,0.1049,5.1552
2025-12-12,2.0074,0.0786,0.102,5.0808
2025-12-13,2.0227,0.0414,0.1009,4.9891
2025-12-14,1.9784,0.0779,0.102,5.156
2025-12-15,1.8981,0.1448,0.0997,5.2515
2025-12-16,1.9297,0.0971,0.0932,4.8287
2025-12-17,1.8627,0.14,0.0976,5.2416
2025-12-18,1.8076,0.1341,0.0968,5.3564
2025-12-19,1.9092,0.1502,0.1004,5.2573
2025-12-20,1.9335,0.0652,0.1025,5.3027
2025-12-21,1.9223,0.055,0.0978,5.0865
2025-12-22,1.9043,0.0576,0.0953,5.0056
2025-12-23,1.8734,0.047,0.089,4.7484
2025-12-24,1.8628,0.0411,0.0865,4.6409
2025-12-25,1.8326,0.0601,0.085,4.6386
2025-12-26,1.8437,0.0587,0.0836,4.5336
2025-12-27,1.8735,0.0371,0.0833,4.4451
2025-12-28,1.8654,0.0257,0.0796,4.2645
2025-12-29,1.8508,0.073,0.0744,4.021
2025-12-30,1.8776,0.0425,0.0705,3.7559
2025-12-31,1.8423,0.0716,0.0656,3.5627
2026-01-01,1.8799,0.055,0.06,3.1909
2026-01-02,2.0069,0.1626,0.0609,3.0331
2026-01-03,2.0182,0.0717,0.0613,3.0391
2026-01-04,2.0909,0.1041,0.0648,3.1012
2026-01-05,2.3478,0.2818,0.0809,3.444
2026-01-06,2.3042,0.2126,0.0927,4.0225
2026-01-07,2.1657,0.1688,0.1018,4.7009
2026-01-08,2.1232,0.1276,0.1066,5.0221
2026-01-09,2.0958,0.0895,0.1088,5.1927
2026-01-10,2.0907,0.03,0.1083,5.1811
2026-01-11,2.0745,0.065,0.1111,5.3569
2026-01-12,2.054,0.0736,0.1112,5.4124
2026-01-13,2.1655,0.1376,0.118,5.4474
2026-01-14,2.1394,0.0808,0.1186,5.5446
2026-01-15,2.0789,0.0902,0.1211,5.8269
2026-01-16,2.0678,0.0603,0.1138,5.5048
2026-01-17,2.0631,0.0298,0.1108,5.3723
2026-01-18,1.9914,0.0818,0.1092,5.4857
2026-01-19,1.986,0.1829,0.1022,5.1449
2026-01-20,1.89,0.1209,0.0956,5.0597
2026-01-21,1.9476,0.1195,0.0921,4.7293
2026-01-22,1.9236,0.0663,0.0877,4.5606
2026-01-23,1.9196,0.0783,0.0869,4.5285
2026-01-24,1.9143,0.0176,0.086,4.4947
2026-01-25,1.8356,0.1057,0.089,4.8458
2026-01-26,1.9041,0.1129,0.0918,4.8189
2026-01-27,1.9158,0.0554,0.0859,4.483
2026-01-28,1.9111,0.0483,0.0836,4.3726
2026-01-29,1.8076,0.1354,0.0868,4.8016
2026-01-30,1.7352,0.1024,0.0898,5.1752
2026-01-31,1.6472,0.2519,0.1057,6.4148
2026-02-01,1.5908,0.1279,0.109,6.8492
2026-02-02,1.6198,0.1264,0.1049,6.4774
2026-02-03,1.5791,0.1065,0.1039,6.5792
2026-02-04,1.512,0.1174,0.1037,6.8613
2026-02-05,1.2146,0.3783,0.126,10.3761
2026-02-06,1.4698,0.427,0.1509,10.2691
2026-02-07,1.4231,0.1021,0.157,11.0302
2026-02-08,1.4308,0.0604,0.1537,10.7447
2026-02-09,1.437,0.0914,0.1522,10.5915
2026-02-10,1.3999,0.0616,0.1526,10.9038
2026-02-11,1.3697,0.0784,0.1548,11.3012
2026-02-12,1.3635,0.0621,0.1496,10.9686
2026-02-13,1.4071,0.08,0.148,10.515
2026-02-14,1.5094,0.1087,0.1377,9.1247
2026-02-15,1.4753,0.2264,0.1448,9.8125
2026-02-16,1.4876,0.0686,0.1406,9.4539
2026-02-17,1.4743,0.0682,0.1379,9.3536
2026-02-18,1.4219,0.0841,0.1355,9.531
2026-02-19,1.4068,0.0561,0.1125,7.9974
2026-02-20,1.4292,0.0614,0.0864,6.0448
2026-02-21,1.4304,0.0444,0.0823,5.7516
2026-02-22,1.3932,0.0538,0.0818,5.8714
2026-02-23,1.3518,0.0947,0.082,6.0686
2026-02-24,1.3482,0.0552,0.0816,6.0509
2026-02-25,1.4339,0.1531,0.0869,6.0614
2026-02-26,1.4027,0.0864,0.0887,6.32
2026-02-27,1.3562,0.0876,0.0892,6.5767
2026-02-28,1.3762,0.1231,0.0902,6.5558
2026-03-01,1.3524,0.0964,0.0809,5.9846
2026-03-02,1.39,0.0889,0.0824,5.927
2026-03-03,1.3607,0.0587,0.0817,6.0048
2026-03-04,1.4309,0.128,0.0848,5.9293
2026-03-05,1.4037,0.0565,0.0849,6.0463
2026-03-06,1.3633,0.0688,0.0854,6.2642
2026-03-07,1.3567,0.0281,0.0842,6.2089
2026-03-08,1.34,0.0494,0.0839,6.2628
2026-03-09,1.3631,0.0511,0.0808,5.9282
2026-03-10,1.3863,0.0822,0.0827,5.9681
2026-03-11,1.3847,0.0406,0.0747,5.3947
2026-03-12,1.3846,0.0286,0.0706,5.0969
2026-03-13,1.3989,0.0697,0.0693,4.9534
2026-03-14,1.4063,0.025,0.0623,4.429
2026-03-15,1.4487,0.0628,0.0599,4.1338
2026-03-16,1.543,0.1165,0.0619,4.0089
2026-03-17,1.5182,0.1129,0.0657,4.3294
2026-03-18,1.4647,0.1055,0.0641,4.3778
2026-03-19,1.4475,0.0598,0.0644,4.4461
2026-03-20,1.4452,0.0417,0.0624,4.3192
2026-03-21,1.4086,0.0527,0.0642,4.5562
2026-03-22,1.3848,0.0551,0.0646,4.6639
2026-03-23,1.4323,0.1043,0.0684,4.7745
2026-03-24,1.416,0.0515,0.0662,4.6746
2026-03-25,1.4145,0.036,0.0659,4.6564
2026-03-26,1.3609,0.0805,0.0696,5.1122
2026-03-27,1.3257,0.0542,0.0685,5.1644
2026-03-28,1.3333,0.0391,0.0695,5.2105
2026-03-29,1.3278,0.0479,0.0684,5.1519
2026-03-30,1.3242,0.0503,0.0637,4.8088
2026-03-31,1.3411,0.0465,0.0589,4.3946
2026-04-01,1.3478,0.0369,0.054,4.0092
2026-04-02,1.32,0.0767,0.0552,4.1851
2026-04-03,1.3184,0.0323,0.0546,4.1392
2026-04-04,1.3153,0.0159,0.0519,3.9491
2026-04-05,1.3263,0.0533,0.0518,3.9067
2026-04-06,1.3212,0.0455,0.0476,3.6039
2026-04-07,1.3787,0.1013,0.0512,3.7116
2026-04-08,1.3428,0.0509,0.0522,3.8901
2026-04-09,1.3438,0.0478,0.0499,3.7134
2026-04-10,1.3559,0.0312,0.0483,3.559
2026-04-11,1.3546,0.0358,0.048,3.5451
2026-04-12,1.3247,0.0366,0.0472,3.5641
2026-04-13,1.3756,0.0646,0.0482,3.5065
2026-04-14,1.3617,0.0434,0.048,3.5261
2026-04-15,1.3922,0.0583,0.0495,3.5586
2026-04-16,1.453,0.0799,0.0498,3.4254
2026-04-17,1.4757,0.0875,0.0537,3.6399
2026-04-18,1.4323,0.0588,0.0568,3.9642
2026-04-19,1.3942,0.0561,0.057,4.0868
2026-04-20,1.4243,0.0436,0.0568,3.9909
2026-04-21,1.4334,0.0384,0.0523,3.6522
2026-04-22,1.4294,0.0358,0.0513,3.5869
2026-04-23,1.4386,0.032,0.0501,3.4855
2026-04-24,1.4334,0.0264,0.0498,3.4743
2026-04-25,1.4238,0.019,0.0486,3.4134
2026-04-26,1.4307,0.0186,0.0473,3.3071
2026-04-27,1.4007,0.063,0.0472,3.3697
2026-04-28,1.3805,0.0332,0.0465,3.3663
2026-04-29,1.3691,0.0609,0.0467,3.4079
2026-04-30,1.3679,0.0256,0.0428,3.1273
2026-05-01,1.3858,0.035,0.039,2.8163
2026-05-02,1.3937,0.0191,0.0362,2.5969
2026-05-03,1.388,0.0228,0.0338,2.4362
2026-05-04,1.3918,0.038,0.0334,2.4008
2026-05-05,1.4126,0.0318,0.0329,2.3321
2026-05-06,1.4249,0.05,0.034,2.3831
2026-05-07,1.3869,0.0456,0.0349,2.5185
2026-05-08,1.4182,0.0492,0.0366,2.5777
2026-05-09,1.4205,0.0237,0.0369,2.5972
2026-05-10,1.4734,0.0963,0.0424,2.8806
2026-05-11,1.4776,0.0487,0.0414,2.8033
2026-05-12,1.437,0.0665,0.0438,3.048
2026-05-13,1.4273,0.0581,0.0436,3.0547
2026-05-14,1.4852,0.1288,0.051,3.432
2026-05-15,1.434,0.0727,0.0537,3.7423
2026-05-16,1.4136,0.0456,0.0556,3.9302
2026-05-17,1.4016,0.0576,0.058,4.1412
2026-05-18,1.39,0.0389,0.0581,4.1804
2026-05-19,1.3616,0.0446,0.059,4.3347
2026-05-20,1.3672,0.033,0.0578,4.2281
2026-05-21,1.3739,0.035,0.0571,4.1524
2026-05-22,1.3345,0.046,0.0568,4.2579
2026-05-23,1.3583,0.0743,0.0604,4.4494
2026-05-24,1.351,0.0384,0.0563,4.1673
2026-05-25,1.3503,0.0222,0.0544,4.0293
2026-05-26,1.3292,0.0383,0.0524,3.9417
2026-05-27,1.3076,0.0404,0.0511,3.9101
2026-05-28,1.3156,0.0708,0.047,3.5714
2026-05-29,1.33,0.0392,0.0446,3.3528
2026-05-30,1.3408,0.038,0.0441,3.2854
2026-05-31,1.333,0.0274,0.0419,3.1427
