date,close,tr,atr_14,atr_14_pct
2021-06-01,30.938,3.433,,
2021-06-02,33.994,4.727,,
2021-06-03,39.602,7.787,,
2021-06-04,37.338,5.55,,
2021-06-05,39.633,5.805,,
2021-06-06,42.205,4.488,,
2021-06-07,38.235,6.4,,
2021-06-08,41.245,8.996,,
2021-06-09,42.032,4.709,,
2021-06-10,41.105,3.638,,
2021-06-11,36.157,6.302,,
2021-06-12,36.476,3.54,,
2021-06-13,38.706,4.722,,
2021-06-14,39.694,3.934,5.2879,13.3217
2021-06-15,39.536,2.587,5.2275,13.2221
2021-06-16,39.728,4.295,5.1966,13.0806
2021-06-17,39.265,3.053,4.8585,12.3736
2021-06-18,36.82,4.604,4.7909,13.0118
2021-06-19,35.19,2.417,4.5489,12.9268
2021-06-20,35.257,4.649,4.5604,12.9348
2021-06-21,26.59,9.574,4.7871,18.0035
2021-06-22,26.958,8.626,4.7607,17.6597
2021-06-23,30.837,7.274,4.9439,16.0325
2021-06-24,31.141,4.519,5.0069,16.078
2021-06-25,28.641,5.04,4.9167,17.1667
2021-06-26,29.698,3.522,4.9154,16.5514
2021-06-27,31.897,2.764,4.7756,14.9719
2021-06-28,33.001,3.379,4.7359,14.3509
2021-06-29,33.97,3.172,4.7777,14.0645
2021-06-30,35.51,4.445,4.7884,13.4847
2021-07-01,33.271,3.397,4.813,14.4661
2021-07-02,34.0,2.85,4.6877,13.7874
2021-07-03,34.498,2.189,4.6714,13.5412
2021-07-04,34.28,1.998,4.4821,13.0749
2021-07-05,32.908,2.12,3.9496,12.0021
2021-07-06,34.226,2.158,3.4876,10.19
2021-07-07,36.673,4.28,3.2738,8.927
2021-07-08,33.142,4.28,3.2567,9.8265
2021-07-09,33.315,2.484,3.0741,9.2275
2021-07-10,31.693,3.19,3.0504,9.6249
2021-07-11,32.182,1.268,2.9436,9.1466
2021-07-12,30.77,2.685,2.894,9.4053
2021-07-13,29.136,2.286,2.8307,9.7155
2021-07-14,31.365,4.137,2.8087,8.9549
2021-07-15,28.545,3.51,2.8168,9.8679
2021-07-16,26.271,3.282,2.8476,10.8395
2021-07-17,26.802,1.857,2.8239,10.5363
2021-07-18,26.673,1.523,2.79,10.46
2021-07-19,24.509,2.735,2.8339,11.5628
2021-07-20,23.474,2.882,2.8856,12.2929
2021-07-21,26.7,4.661,2.9129,10.9096
2021-07-22,27.699,2.26,2.7686,9.9952
2021-07-23,28.516,2.328,2.7574,9.6698
2021-07-24,28.616,1.535,2.6392,9.2229
2021-07-25,28.248,2.398,2.7199,9.6287
2021-07-26,28.184,3.285,2.7628,9.8027
2021-07-27,28.103,2.057,2.7464,9.7727
2021-07-28,27.875,1.406,2.5514,9.1529
2021-07-29,31.235,4.569,2.627,8.4104
2021-07-30,32.354,3.174,2.6193,8.0957
2021-07-31,36.744,5.351,2.8689,7.8077
2021-08-01,34.165,3.657,3.0213,8.8432
2021-08-02,33.167,2.95,3.0366,9.1556
2021-08-03,34.105,3.573,3.086,9.0485
2021-08-04,35.76,3.422,2.9975,8.3823
2021-08-05,37.353,2.767,3.0337,8.1217
2021-08-06,39.525,4.789,3.2095,8.1202
2021-08-07,39.469,2.998,3.314,8.3965
2021-08-08,37.65,2.653,3.3322,8.8505
2021-08-09,38.646,3.648,3.3581,8.6895
2021-08-10,40.64,3.495,3.4609,8.5159
2021-08-11,41.621,3.124,3.5836,8.61
2021-08-12,41.102,4.085,3.549,8.6346
2021-08-13,44.83,4.243,3.6254,8.0869
2021-08-14,44.14,2.147,3.3965,7.6948
2021-08-15,53.531,11.439,3.9524,7.3833
2021-08-16,62.016,16.863,4.9461,7.9756
2021-08-17,64.123,16.333,5.8576,9.1349
2021-08-18,72.663,20.778,7.0973,9.7674
2021-08-19,72.764,7.196,7.4136,10.1886
2021-08-20,78.643,9.127,7.7235,9.821
2021-08-21,73.801,9.4,8.1808,11.0849
2021-08-22,72.775,6.356,8.4453,11.6047
2021-08-23,75.623,5.265,8.5608,11.3203
2021-08-24,70.527,10.95,9.0933,12.8933
2021-08-25,71.973,6.8,9.3559,12.9991
2021-08-26,74.92,12.1,9.9284,13.2519
2021-08-27,87.98,16.37,10.7946,12.2693
2021-08-28,96.22,12.23,11.5148,11.9671
2021-08-29,94.23,7.52,11.2349,11.9228
2021-08-30,110.25,23.26,11.6918,10.6048
2021-08-31,108.27,27.05,12.4573,11.5058
2021-09-01,110.71,13.83,11.961,10.8039
2021-09-02,128.23,22.78,13.0741,10.1959
2021-09-03,146.4,20.87,13.9129,9.5034
2021-09-04,138.88,14.87,14.3036,10.2993
2021-09-05,142.0,10.25,14.5818,10.2689
2021-09-06,164.22,29.21,16.2921,9.9209
2021-09-07,173.46,67.47,20.3293,11.7199
2021-09-08,191.02,51.5,23.5221,12.314
2021-09-09,187.9,35.3,25.1793,13.4004
2021-09-10,179.6,29.59,26.1236,14.5454
2021-09-11,179.04,18.37,26.5621,14.8359
2021-09-12,174.29,11.6,26.8536,15.4074
2021-09-13,169.53,24.7,26.9564,15.9007
2021-09-14,158.88,29.23,27.1121,17.0645
2021-09-15,158.79,12.81,27.0393,17.0283
2021-09-16,152.29,16.15,26.5657,17.4442
2021-09-17,147.58,19.55,26.4714,17.937
2021-09-18,169.22,27.37,27.3643,16.1708
2021-09-19,152.76,20.36,28.0864,18.386
2021-09-20,132.77,23.17,27.655,20.8293
2021-09-21,124.29,28.64,24.8814,20.0188
2021-09-22,148.02,29.26,23.2929,15.7363
2021-09-23,149.91,9.58,21.4557,14.3124
2021-09-24,139.13,23.05,20.9886,15.0856
2021-09-25,136.06,10.64,20.4364,15.0202
2021-09-26,135.64,16.01,20.7514,15.2989
2021-09-27,136.35,15.2,20.0729,14.7216
2021-09-28,132.2,11.23,18.7871,14.2112
2021-09-29,135.25,9.05,18.5186,13.6921
2021-09-30,141.37,8.93,18.0029,12.7346
2021-10-01,161.56,26.7,18.5136,11.4593
2021-10-02,168.98,18.94,17.9114,10.5997
2021-10-03,172.98,12.21,17.3293,10.0181
2021-10-04,167.13,11.34,16.4843,9.8632
2021-10-05,164.62,10.5,15.1886,9.2264
2021-10-06,153.87,15.32,14.1929,9.2239
2021-10-07,154.26,11.08,14.3,9.2701
2021-10-08,158.86,16.58,13.8379,8.7107
2021-10-09,156.84,7.36,13.6036,8.6735
2021-10-10,147.55,12.95,13.385,9.0715
2021-10-11,144.77,13.76,13.2821,9.1747
2021-10-12,152.32,15.89,13.615,8.9384
2021-10-13,148.04,11.28,13.7743,9.3044
2021-10-14,150.02,8.38,13.735,9.1554
2021-10-15,163.18,19.07,13.19,8.0831
2021-10-16,157.54,8.44,12.44,7.8964
2021-10-17,160.12,14.52,12.605,7.8722
2021-10-18,157.12,8.07,12.3714,7.8739
2021-10-19,155.78,6.39,12.0779,7.7532
2021-10-20,176.72,21.87,12.5457,7.0992
2021-10-21,190.5,17.51,13.005,6.8268
2021-10-22,196.29,27.14,13.7593,7.0097
2021-10-23,197.75,13.92,14.2279,7.1949
2021-10-24,202.14,19.64,14.7057,7.275
2021-10-25,209.7,20.93,15.2179,7.257
2021-10-26,199.85,17.84,15.3571,7.6843
2021-10-27,184.49,28.55,16.5907,8.9927
2021-10-28,195.42,19.74,17.4021,8.905
2021-10-29,200.41,10.77,16.8093,8.3874
2021-10-30,195.7,13.32,17.1579,8.7674
2021-10-31,202.49,19.69,17.5271,8.6558
2021-11-01,203.9,13.96,17.9479,8.8023
2021-11-02,220.82,21.25,19.0093,8.6085
2021-11-03,243.37,31.31,19.6836,8.0879
2021-11-04,247.07,16.5,19.6114,7.9376
2021-11-05,236.06,18.5,18.9943,8.0464
2021-11-06,258.44,25.11,19.7936,7.6589
2021-11-07,249.68,13.01,19.32,7.7379
2021-11-08,248.26,12.62,18.7264,7.5431
2021-11-09,239.04,15.6,18.5664,7.7671
2021-11-10,233.09,30.5,18.7057,8.0251
2021-11-11,233.37,17.1,18.5171,7.9347
2021-11-12,228.48,18.26,19.0521,8.3386
2021-11-13,241.59,17.18,19.3279,8.0003
2021-11-14,238.64,11.6,18.75,7.857
2021-11-15,238.2,11.87,18.6007,7.8089
2021-11-16,219.04,24.4,18.8257,8.5946
2021-11-17,218.94,12.91,17.5114,7.9983
2021-11-18,195.01,36.28,18.9243,9.7043
2021-11-19,215.25,30.6,19.7886,9.1933
2021-11-20,217.63,15.33,19.09,8.7718
2021-11-21,230.51,29.47,20.2657,8.7917
2021-11-22,215.59,20.39,20.8207,9.6576
2021-11-23,221.75,15.17,20.79,9.3754
2021-11-24,205.7,22.33,20.2064,9.8233
2021-11-25,209.97,14.42,20.015,9.5323
2021-11-26,192.42,27.83,20.6986,10.757
2021-11-27,192.74,8.78,20.0986,10.4278
2021-11-28,200.69,21.17,20.7821,10.3553
2021-11-29,204.09,13.12,20.8714,10.2266
2021-11-30,208.53,18.73,20.4664,9.8146
2021-12-01,229.81,24.74,21.3114,9.2735
2021-12-02,233.6,23.12,20.3714,8.7206
2021-12-03,211.65,34.69,20.6636,9.7631
2021-12-04,200.67,43.62,22.6843,11.3043
2021-12-05,196.43,23.07,22.2271,11.3156
2021-12-06,193.56,21.54,22.3093,11.5258
2021-12-07,190.19,16.84,22.4286,11.7927
2021-12-08,194.61,12.77,21.7457,11.174
2021-12-09,181.11,17.96,21.9986,12.1465
2021-12-10,167.39,17.6,21.2679,12.7056
2021-12-11,172.15,12.47,21.5314,12.5074
2021-12-12,172.8,9.21,20.6771,11.9659
2021-12-13,155.21,24.79,21.5107,13.8591
2021-12-14,161.26,13.75,21.155,13.1186
2021-12-15,178.52,25.83,21.2329,11.8938
2021-12-16,176.86,14.63,20.6264,11.6626
2021-12-17,175.51,14.62,19.1929,10.9355
2021-12-18,182.78,13.28,17.0257,9.3149
2021-12-19,179.93,11.44,16.195,9.0007
2021-12-20,173.9,12.69,15.5629,8.9493
2021-12-21,179.63,12.27,15.2364,8.4821
2021-12-22,178.4,10.5,15.0743,8.4497
2021-12-23,190.03,17.86,15.0671,7.9288
2021-12-24,190.36,13.41,14.7679,7.7579
2021-12-25,193.1,5.92,14.3,7.4055
2021-12-26,197.81,10.37,14.3829,7.271
2021-12-27,195.67,10.04,13.3293,6.8121
2021-12-28,177.32,19.48,13.7386,7.7479
2021-12-29,170.63,10.61,12.6514,7.4145
2021-12-30,172.52,7.57,12.1471,7.041
2021-12-31,169.99,9.98,11.8157,6.9508
2022-01-01,179.06,9.27,11.5293,6.4388
2022-01-02,176.35,5.22,11.085,6.2858
2022-01-03,170.15,9.9,10.8857,6.3977
2022-01-04,167.72,7.46,10.5421,6.2856
2022-01-05,154.52,26.4,11.6779,7.5575
2022-01-06,150.26,8.82,11.0321,7.342
2022-01-07,136.45,17.64,11.3343,8.3065
2022-01-08,142.14,15.11,11.9907,8.4358
2022-01-09,140.82,7.88,11.8129,8.3886
2022-01-10,135.86,13.86,12.0857,8.8957
2022-01-11,140.2,9.92,11.4029,8.1333
2022-01-12,151.51,15.17,11.7286,7.7411
2022-01-13,146.14,12.39,12.0729,8.2612
2022-01-14,146.17,8.72,11.9829,8.1979
2022-01-15,147.64,5.59,11.72,7.9382
2022-01-16,147.98,5.87,11.7664,7.9514
2022-01-17,139.8,11.27,11.8643,8.4866
2022-01-18,141.22,8.38,11.93,8.4478
2022-01-19,135.25,9.93,10.7536,7.9509
2022-01-20,127.54,17.82,11.3964,8.9356
2022-01-21,112.27,22.62,11.7521,10.4677
2022-01-22,94.54,27.16,12.6129,13.3413
2022-01-23,99.78,11.57,12.8764,12.9048
2022-01-24,91.93,19.0,13.2436,14.4061
2022-01-25,94.67,12.54,13.4307,14.1869
2022-01-26,92.12,15.24,13.4357,14.585
2022-01-27,89.51,8.89,13.1857,14.731
2022-01-28,91.34,6.34,13.0157,14.2497
2022-01-29,96.13,8.43,13.2186,13.7507
2022-01-30,93.29,6.22,13.2436,14.1961
2022-01-31,99.49,12.22,13.3114,13.3797
2022-02-01,110.02,14.64,13.7586,12.5055
2022-02-02,101.88,15.36,14.1464,13.8854
2022-02-03,101.77,9.13,13.5257,13.2905
2022-02-04,112.62,12.53,12.805,11.3701
2022-02-05,113.75,8.38,11.4636,10.0779
2022-02-06,115.28,4.97,10.9921,9.5352
2022-02-07,117.55,9.24,10.295,8.758
2022-02-08,113.45,10.7,10.1636,8.9586
2022-02-09,113.93,7.68,9.6236,8.4469
2022-02-10,106.17,9.7,9.6814,9.1188
2022-02-11,96.53,13.0,10.1571,10.5223
2022-02-12,95.96,6.99,10.0543,10.4776
2022-02-13,92.85,6.01,10.0393,10.8124
2022-02-14,96.37,7.27,9.6857,10.0505
2022-02-15,105.52,9.4,9.3114,8.8243
2022-02-16,101.86,7.33,8.7379,8.5783
2022-02-17,93.52,10.49,8.835,9.4472
2022-02-18,89.86,7.06,8.4443,9.3972
2022-02-19,91.27,4.15,8.1421,8.9209
2022-02-20,90.72,8.94,8.4257,9.2876
2022-02-21,82.96,13.52,8.7314,10.5249
2022-02-22,86.38,6.5,8.4314,9.7609
2022-02-23,84.59,9.02,8.5271,10.0806
2022-02-24,89.36,18.55,9.1593,10.2499
2022-02-25,92.71,8.14,8.8121,9.5051
2022-02-26,90.23,6.26,8.76,9.7085
2022-02-27,85.63,8.11,8.91,10.4052
2022-02-28,99.68,18.83,9.7357,9.767
2022-03-01,98.66,7.82,9.6229,9.7536
2022-03-02,100.68,9.67,9.79,9.7239
2022-03-03,95.62,7.7,9.5907,10.03
2022-03-04,88.32,8.94,9.725,11.0111
2022-03-05,89.63,5.22,9.8014,10.9354
2022-03-06,84.57,5.87,9.5821,11.3304
2022-03-07,81.66,6.79,9.1014,11.1455
2022-03-08,82.32,3.74,8.9043,10.8167
2022-03-09,88.06,8.02,8.8329,10.0305
2022-03-10,82.87,7.94,8.075,9.7442
2022-03-11,80.67,4.22,7.795,9.6628
2022-03-12,81.38,2.18,7.5036,9.2204
2022-03-13,78.73,5.69,7.3307,9.3112
2022-03-14,81.22,4.29,6.2921,7.747
2022-03-15,82.84,7.27,6.2529,7.5481
2022-03-16,87.77,6.45,6.0229,6.8621
2022-03-17,87.8,4.42,5.7886,6.5929
2022-03-18,89.8,7.87,5.7121,6.361
2022-03-19,92.31,5.3,5.7179,6.1942
2022-03-20,88.62,4.73,5.6364,6.3602
2022-03-21,88.59,4.54,5.4757,6.181
2022-03-22,90.43,5.98,5.6357,6.2321
2022-03-23,94.89,7.17,5.575,5.8752
2022-03-24,102.32,10.44,5.7536,5.6231
2022-03-25,98.6,7.91,6.0171,6.1026
2022-03-26,101.73,5.77,6.2736,6.1669
2022-03-27,107.04,8.69,6.4879,6.0612
2022-03-28,105.75,8.65,6.7993,6.4296
2022-03-29,111.62,10.21,7.0093,6.2796
2022-03-30,120.82,18.15,7.845,6.4931
2022-03-31,122.77,9.55,8.2114,6.6885
2022-04-01,134.52,21.01,9.15,6.802
2022-04-02,132.49,12.04,9.6314,7.2696
2022-04-03,136.9,10.59,10.05,7.3411
2022-04-04,132.14,12.47,10.6164,8.0342
2022-04-05,126.87,10.56,10.9436,8.6258
2022-04-06,112.95,15.3,11.5243,10.203
2022-04-07,118.48,9.12,11.43,9.6472
2022-04-08,109.92,14.32,11.8879,10.815
2022-04-09,112.96,5.41,11.8621,10.5012
2022-04-10,111.07,6.38,11.6971,10.5313
2022-04-11,99.67,13.84,12.0679,12.1078
2022-04-12,103.22,11.05,12.1279,11.7495
2022-04-13,104.94,5.95,11.2564,10.7265
2022-04-14,100.77,8.95,11.2136,11.1279
2022-04-15,101.31,3.36,9.9529,9.8242
2022-04-16,102.06,2.79,9.2921,9.1046
2022-04-17,100.15,5.82,8.9514,8.938
2022-04-18,102.33,8.03,8.6343,8.4377
2022-04-19,108.51,7.98,8.45,7.7873
2022-04-20,105.59,6.65,7.8321,7.4175
2022-04-21,101.78,10.14,7.905,7.7668
2022-04-22,100.55,4.36,7.1936,7.1542
2022-04-23,100.63,4.59,7.135,7.0903
2022-04-24,99.23,3.76,6.9479,7.0018
2022-04-25,100.99,7.27,6.4786,6.4151
2022-04-26,95.7,7.37,6.2157,6.495
2022-04-27,98.36,5.9,6.2121,6.3157
2022-04-28,98.24,4.22,5.8743,5.9795
2022-04-29,93.96,6.33,6.0864,6.4777
2022-04-30,84.63,13.04,6.8186,8.0569
2022-05-01,89.68,8.97,7.0436,7.8541
2022-05-02,87.5,5.79,6.8836,7.8669
2022-05-03,85.86,4.15,6.61,7.6986
2022-05-04,92.77,7.59,6.6771,7.1975
2022-05-05,84.52,13.93,6.9479,8.2204
2022-05-06,81.68,4.86,6.9836,8.5499
2022-05-07,78.86,5.3,7.0343,8.92
2022-05-08,75.38,5.72,7.1743,9.5175
2022-05-09,62.16,15.51,7.7629,12.4885
2022-05-10,66.9,13.9,8.2293,12.3009
2022-05-11,50.9,25.27,9.6129,18.8858
2022-05-12,44.64,16.92,10.52,23.5663
2022-05-13,48.92,13.16,11.0079,22.5018
2022-05-14,52.43,8.1,10.655,20.3223
2022-05-15,58.83,9.68,10.7057,18.1977
2022-05-16,53.79,6.94,10.7879,20.0555
2022-05-17,57.02,5.18,10.8614,19.0485
2022-05-18,49.93,8.47,10.9243,21.8792
2022-05-19,52.2,5.89,10.35,19.8276
2022-05-20,49.43,5.81,10.4179,21.076
2022-05-21,50.31,2.78,10.2379,20.3495
2022-05-22,52.48,3.51,10.08,19.2073
2022-05-23,49.17,6.07,9.4057,19.129
2022-05-24,49.67,3.75,8.6807,17.4768
2022-05-25,47.98,2.98,7.0886,14.774
2022-05-26,43.44,6.97,6.3779,14.682
2022-05-27,41.17,4.02,5.725,13.9058
2022-05-28,44.25,4.75,5.4857,12.3971
2022-05-29,44.98,3.88,5.0714,11.2749
2022-05-30,47.22,4.12,4.87,10.3134
2022-05-31,45.77,3.68,4.7629,10.4061
2022-06-01,40.11,6.61,4.63,11.5433
2022-06-02,40.85,3.52,4.4607,10.9197
2022-06-03,38.28,3.91,4.325,11.2983
2022-06-04,39.0,3.79,4.3971,11.2747
2022-06-05,38.52,2.37,4.3157,11.2038
2022-06-06,42.39,6.54,4.3493,10.2602
2022-06-07,39.31,5.68,4.4871,11.4148
2022-06-08,38.83,2.68,4.4657,11.5007
2022-06-09,39.96,3.53,4.22,10.5606
2022-06-10,37.17,4.1,4.2257,11.3686
2022-06-11,33.93,4.76,4.2264,12.4563
2022-06-12,30.61,3.94,4.2307,13.8213
2022-06-13,28.6,5.06,4.2979,15.0275
2022-06-14,29.59,6.46,4.4964,15.1958
2022-06-15,34.76,8.07,4.6007,13.2357
2022-06-16,30.12,6.48,4.8121,15.9766
2022-06-17,30.71,2.93,4.7421,15.4417
2022-06-18,32.02,4.91,4.8221,15.0598
2022-06-19,34.19,6.72,5.1329,15.0127
2022-06-20,35.24,5.17,5.035,14.2877
2022-06-21,36.42,4.99,4.9857,13.6895
2022-06-22,34.12,3.22,5.0243,14.7253
2022-06-23,38.15,4.74,5.1107,13.3964
2022-06-24,41.91,5.25,5.1929,12.3905
2022-06-25,42.22,2.91,5.0607,11.9865
2022-06-26,39.39,3.35,5.0186,12.7407
2022-06-27,38.52,3.35,4.8964,12.7114
2022-06-28,35.35,4.88,4.7836,13.532
2022-06-29,34.05,3.02,4.4229,12.9893
2022-06-30,33.76,3.28,4.1943,12.4238
2022-07-01,32.84,3.58,4.2407,12.9133
2022-07-02,33.36,2.27,4.0521,12.1467
2022-07-03,33.39,1.63,3.6886,11.0469
2022-07-04,36.71,4.49,3.64,9.9156
2022-07-05,35.4,3.96,3.5664,10.0747
2022-07-06,37.04,2.85,3.54,9.5572
2022-07-07,38.46,2.9,3.4086,8.8626
2022-07-08,38.12,3.26,3.2664,8.5688
2022-07-09,38.06,1.18,3.1429,8.2576
2022-07-10,36.71,1.88,3.0379,8.2753
2022-07-11,33.42,3.49,3.0479,9.1199
2022-07-12,32.68,2.01,2.8429,8.6991
2022-07-13,34.94,3.26,2.86,8.1855
2022-07-14,37.15,3.73,2.8921,7.785
2022-07-15,37.36,2.61,2.8229,7.5558
2022-07-16,39.58,4.06,2.9507,7.4551
2022-07-17,38.62,2.8,3.0343,7.8568
2022-07-18,43.52,5.52,3.1079,7.1412
2022-07-19,44.87,4.82,3.1693,7.0633
2022-07-20,42.04,5.06,3.3271,7.9142
2022-07-21,43.11,4.6,3.4486,7.9995
2022-07-22,40.54,4.3,3.5229,8.6898
2022-07-23,39.97,3.31,3.675,9.1944
2022-07-24,40.93,2.63,3.7286,9.1096
2022-07-25,36.65,4.53,3.8029,10.3761
2022-07-26,36.25,2.17,3.8143,10.5222
2022-07-27,40.23,4.87,3.9293,9.7671
2022-07-28,42.91,5.12,4.0286,9.3884
2022-07-29,41.91,3.29,4.0771,9.7283
2022-07-30,43.84,5.24,4.1614,9.4923
2022-07-31,42.35,2.99,4.175,9.8583
2022-08-01,41.65,2.69,3.9729,9.5387
2022-08-02,39.79,2.95,3.8393,9.6489
2022-08-03,38.54,3.56,3.7321,9.6838
2022-08-04,38.83,1.89,3.5386,9.113
2022-08-05,40.55,2.62,3.4186,8.4305
2022-08-06,40.07,1.04,3.2564,8.1268
2022-08-07,40.6,2.36,3.2371,7.9733
2022-08-08,42.18,3.16,3.1393,7.4426
2022-08-09,40.33,3.03,3.2007,7.9363
2022-08-10,42.47,3.72,3.1186,7.343
2022-08-11,42.77,2.98,2.9657,6.9341
2022-08-12,45.48,3.37,2.9714,6.5335
2022-08-13,46.6,3.11,2.8193,6.05
2022-08-14,44.87,3.6,2.8629,6.3803
2022-08-15,43.72,4.49,2.9914,6.8422
2022-08-16,43.08,1.78,2.9079,6.7499
2022-08-17,40.54,4.57,2.98,7.3508
2022-08-18,39.52,2.36,3.0136,7.6254
2022-08-19,35.81,4.34,3.1364,8.7585
2022-08-20,35.28,3.06,3.2807,9.2991
2022-08-21,36.47,2.58,3.2964,9.0387
2022-08-22,35.41,2.83,3.2729,9.2427
2022-08-23,35.68,1.87,3.19,8.9406
2022-08-24,34.89,2.09,3.0736,8.8093
2022-08-25,35.27,1.62,2.9764,8.439
2022-08-26,31.72,4.43,3.0521,9.6221
2022-08-27,31.53,1.39,2.9293,9.2905
2022-08-28,30.44,2.02,2.8164,9.2524
2022-08-29,32.42,2.64,2.6843,8.2797
2022-08-30,31.47,2.52,2.7371,8.6976
2022-08-31,31.5,1.77,2.5371,8.0544
2022-09-01,31.61,1.35,2.465,7.7982
2022-09-02,31.23,1.62,2.2707,7.2709
2022-09-03,31.12,0.49,2.0871,6.7068
2022-09-04,32.16,1.18,1.9871,6.1789
2022-09-05,32.18,1.35,1.8814,5.8466
2022-09-06,30.88,3.46,1.995,6.4605
2022-09-07,32.69,2.63,2.0336,6.2208
2022-09-08,33.61,2.01,2.0614,6.1334
2022-09-09,34.67,2.37,1.9143,5.5214
2022-09-10,35.03,1.14,1.8964,5.4137
2022-09-11,34.99,1.96,1.8921,5.4077
2022-09-12,37.44,3.99,1.9886,5.3114
2022-09-13,33.0,6.08,2.2429,6.7965
2022-09-14,34.12,1.68,2.2364,6.5546
2022-09-15,33.07,2.42,2.3129,6.9938
2022-09-16,32.25,1.76,2.3229,7.2027
2022-09-17,33.68,1.66,2.4064,7.145
2022-09-18,31.1,3.13,2.5457,8.1856
2022-09-19,32.62,2.58,2.6336,8.0735
2022-09-20,31.41,1.59,2.5,7.9592
2022-09-21,30.65,3.47,2.56,8.3524
2022-09-22,32.43,2.28,2.5793,7.9534
2022-09-23,33.66,2.78,2.6086,7.7498
2022-09-24,33.38,1.65,2.645,7.9239
2022-09-25,32.34,2.18,2.6607,8.2273
2022-09-26,33.88,2.08,2.5243,7.4507
2022-09-27,32.69,3.33,2.3279,7.121
2022-09-28,33.22,2.16,2.3621,7.1106
2022-09-29,33.93,1.77,2.3157,6.825
2022-09-30,33.25,2.6,2.3757,7.145
2022-10-01,32.44,0.91,2.3221,7.1583
2022-10-02,32.06,1.1,2.1771,6.7908
2022-10-03,32.89,1.54,2.1029,6.3936
2022-10-04,34.09,1.56,2.1007,6.1623
2022-10-05,34.04,1.19,1.9379,5.6929
2022-10-06,33.36,1.27,1.8657,5.5927
2022-10-07,32.98,1.33,1.7621,5.3431
2022-10-08,32.58,0.73,1.6964,5.207
2022-10-09,32.92,0.7,1.5907,4.8321
2022-10-10,31.96,1.58,1.555,4.8655
2022-10-11,30.8,1.54,1.4271,4.6336
2022-10-12,31.16,0.88,1.3357,4.2866
2022-10-13,30.49,3.34,1.4479,4.7486
2022-10-14,30.0,2.36,1.4307,4.769
2022-10-15,29.59,0.78,1.4214,4.8037
2022-10-16,30.17,0.97,1.4121,4.6806
2022-10-17,31.21,1.45,1.4057,4.5041
2022-10-18,30.15,1.75,1.4193,4.7074
2022-10-19,28.86,1.65,1.4521,5.0317
2022-10-20,28.01,1.49,1.4679,5.2405
2022-10-21,28.1,1.44,1.4757,5.2517
2022-10-22,28.01,0.74,1.4764,5.2711
2022-10-23,29.28,1.71,1.5486,5.2888
2022-10-24,28.3,1.34,1.5314,5.4114
2022-10-25,30.86,4.26,1.7257,5.5921
2022-10-26,31.29,1.54,1.7729,5.6659
2022-10-27,30.58,1.95,1.6736,5.4728
2022-10-28,32.07,2.43,1.6786,5.2341
2022-10-29,32.87,1.99,1.765,5.3696
2022-10-30,32.94,1.61,1.8107,5.497
2022-10-31,32.56,2.19,1.8636,5.7235
2022-11-01,32.2,1.24,1.8271,5.6744
2022-11-02,30.8,2.71,1.9029,6.1781
2022-11-03,30.85,1.64,1.9136,6.2028
2022-11-04,33.74,3.54,2.0636,6.1161
2022-11-05,36.9,5.13,2.3771,6.4421
2022-11-06,32.62,4.75,2.5943,7.9531
2022-11-07,29.62,5.13,2.865,9.6725
2022-11-08,24.38,11.92,3.4121,13.9957
2022-11-09,14.08,12.01,4.16,29.5455
2022-11-10,17.66,5.73,4.43,25.0849
2022-11-11,16.45,3.21,4.4857,27.2688
2022-11-12,14.58,2.06,4.4907,30.8005
2022-11-13,13.18,1.72,4.4986,34.1318
2022-11-14,14.0,2.94,4.5521,32.5153
2022-11-15,14.32,1.28,4.555,31.8087
2022-11-16,14.27,1.0,4.4329,31.0642
2022-11-17,13.65,1.57,4.4279,32.4385
2022-11-18,13.27,0.89,4.2386,31.941
2022-11-19,12.84,0.7,3.9221,30.5463
2022-11-20,12.27,1.48,3.6886,30.0617
2022-11-21,11.83,1.02,3.395,28.6982
2022-11-22,12.44,1.56,2.655,21.3424
2022-11-23,14.36,2.1,1.9471,13.5595
2022-11-24,14.59,1.12,1.6179,11.0888
2022-11-25,14.03,0.7,1.4386,10.2535
2022-11-26,14.17,1.01,1.3636,9.6229
2022-11-27,14.12,0.4,1.2693,8.9893
2022-11-28,13.32,1.39,1.1586,8.698
2022-11-29,13.34,0.82,1.1257,8.4386
2022-11-30,14.16,1.11,1.1336,8.0054
2022-12-01,13.51,0.79,1.0779,7.9782
2022-12-02,13.71,0.51,1.0507,7.6639
2022-12-03,13.29,0.57,1.0414,7.8362
2022-12-04,13.71,0.48,0.97,7.0751
2022-12-05,13.82,0.59,0.9393,6.7966
2022-12-06,14.3,0.57,0.8686,6.0739
2022-12-07,13.49,0.95,0.7864,5.8297
2022-12-08,13.69,0.5,0.7421,5.4211
2022-12-09,13.59,0.51,0.7286,5.3611
2022-12-10,13.58,0.19,0.67,4.9337
2022-12-11,13.42,0.41,0.6707,4.9979
2022-12-12,13.31,0.68,0.62,4.6582
2022-12-13,13.89,1.39,0.6607,4.7568
2022-12-14,14.12,1.15,0.6636,4.6995
2022-12-15,14.04,0.66,0.6543,4.6602
2022-12-16,12.25,2.17,0.7729,6.309
2022-12-17,12.51,0.68,0.7807,6.2407
2022-12-18,12.38,0.35,0.7714,6.2312
2022-12-19,11.94,0.93,0.7957,6.6643
2022-12-20,12.26,0.65,0.8014,6.5369
2022-12-21,12.14,0.39,0.7614,6.2721
2022-12-22,11.82,0.52,0.7629,6.454
2022-12-23,11.78,0.39,0.7543,6.4031
2022-12-24,11.45,0.72,0.7921,6.9183
2022-12-25,11.38,0.32,0.7857,6.9043
2022-12-26,11.32,0.43,0.7679,6.7832
2022-12-27,11.09,0.73,0.7207,6.4988
2022-12-28,9.76,1.73,0.7621,7.8088
2022-12-29,9.64,2.89,0.9214,9.5584
2022-12-30,9.9,1.26,0.8564,8.6508
2022-12-31,9.97,0.54,0.8464,8.4898
2023-01-01,9.99,0.4,0.85,8.5085
2023-01-02,11.28,2.19,0.94,8.3333
2023-01-03,13.37,2.91,1.1014,8.2381
2023-01-04,13.43,1.41,1.1743,8.7438
2023-01-05,13.43,0.94,1.2043,8.9671
2023-01-06,13.5,0.91,1.2414,9.1958
2023-01-07,13.1,0.5,1.2257,9.3566
2023-01-08,14.45,2.04,1.3486,9.3327
2023-01-09,16.25,3.22,1.5479,9.5253
2023-01-10,16.2,1.16,1.5786,9.7443
2023-01-11,16.36,1.39,1.5543,9.5005
2023-01-12,16.59,1.46,1.4521,8.7531
2023-01-13,18.29,2.36,1.5307,8.3691
2023-01-14,24.24,6.55,1.96,8.0858
2023-01-15,22.89,3.02,2.1471,9.3803
2023-01-16,23.58,2.7,2.1836,9.2603
2023-01-17,22.86,1.25,2.065,9.0332
2023-01-18,20.79,3.31,2.2007,10.5854
2023-01-19,21.4,1.47,2.2386,10.4606
2023-01-20,25.51,4.89,2.5229,9.8897
2023-01-21,24.57,2.36,2.6557,10.8088
2023-01-22,24.21,1.95,2.6493,10.9429
2023-01-23,24.33,1.23,2.5071,10.3047
2023-01-24,22.78,2.99,2.6379,11.5797
2023-01-25,24.52,3.19,2.7664,11.2823
2023-01-26,24.33,1.5,2.7693,11.3822
2023-01-27,24.43,1.69,2.7214,11.1397
2023-01-28,24.0,1.54,2.3636,9.8482
2023-01-29,26.07,3.07,2.3671,9.0799
2023-01-30,23.96,3.2,2.4029,10.0286
2023-01-31,23.92,0.98,2.3836,9.9648
2023-02-01,25.0,2.74,2.3429,9.3714
2023-02-02,24.32,2.1,2.3879,9.8185
2023-02-03,24.69,1.06,2.1143,8.5633
2023-02-04,24.34,0.78,2.0014,8.2228
2023-02-05,23.47,1.44,1.965,8.3724
2023-02-06,22.66,1.27,1.9679,8.6843
2023-02-07,23.82,1.42,1.8557,7.7906
2023-02-08,23.22,1.44,1.7307,7.4535
2023-02-09,20.48,3.35,1.8629,9.096
2023-02-10,20.11,1.52,1.8507,9.203
2023-02-11,20.81,0.82,1.7993,8.6463
2023-02-12,21.49,1.97,1.7207,8.007
2023-02-13,20.77,1.88,1.6264,7.8307
2023-02-14,21.84,1.71,1.6786,7.6858
2023-02-15,23.86,2.54,1.6643,6.9752
2023-02-16,22.24,2.0,1.6571,7.4512
2023-02-17,23.14,1.55,1.6921,7.3126
2023-02-18,23.45,1.02,1.7093,7.2891
2023-02-19,24.84,2.44,1.7807,7.1687
2023-02-20,26.26,3.01,1.905,7.2544
2023-02-21,24.98,2.11,1.9543,7.8234
2023-02-22,24.16,2.03,1.9964,8.2634
2023-02-23,23.91,1.09,1.835,7.6746
2023-02-24,23.07,1.67,1.8457,8.0005
2023-02-25,22.37,1.92,1.9243,8.6021
2023-02-26,23.25,1.32,1.8779,8.0768
2023-02-27,22.68,1.09,1.8214,8.031
2023-02-28,21.89,1.0,1.7707,8.0891
2023-03-01,22.51,1.26,1.6793,7.4602
2023-03-02,22.0,0.98,1.6064,7.3019
2023-03-03,21.42,1.68,1.6157,7.543
2023-03-04,20.98,1.42,1.6443,7.8374
2023-03-05,20.97,0.88,1.5329,7.3098
2023-03-06,20.63,0.72,1.3693,6.6374
2023-03-07,20.25,1.24,1.3071,6.455
2023-03-08,18.41,2.29,1.3257,7.2011
2023-03-09,17.33,2.09,1.3971,8.062
2023-03-10,18.17,2.36,1.4464,7.9605
2023-03-11,18.07,1.95,1.4486,8.0164
2023-03-12,20.2,2.82,1.5557,7.7016
2023-03-13,20.4,2.6,1.6636,8.1548
2023-03-14,20.86,2.37,1.7614,8.444
2023-03-15,19.24,2.76,1.8686,9.7119
2023-03-16,19.67,1.02,1.8714,9.5141
2023-03-17,21.6,2.27,1.9136,8.8591
2023-03-18,21.2,1.89,1.9471,9.1846
2023-03-19,21.86,1.24,1.9729,9.025
2023-03-20,22.13,2.56,2.1043,9.5087
2023-03-21,22.53,1.82,2.1457,9.5238
2023-03-22,21.42,2.16,2.1364,9.974
2023-03-23,22.16,1.87,2.1207,9.57
2023-03-24,20.66,2.01,2.0957,10.1438
2023-03-25,20.41,0.89,2.02,9.8971
2023-03-26,20.94,0.85,1.8793,8.9746
2023-03-27,19.91,1.66,1.8121,9.1017
2023-03-28,20.45,1.28,1.7343,8.4806
2023-03-29,21.1,1.13,1.6179,7.6676
2023-03-30,20.55,1.51,1.6529,8.0431
2023-03-31,21.16,1.45,1.5943,7.5344
2023-04-01,21.08,0.6,1.5021,7.1259
2023-04-02,20.52,1.07,1.49,7.2612
2023-04-03,20.45,1.05,1.3821,6.7586
2023-04-04,20.92,0.98,1.3221,6.32
2023-04-05,20.97,0.76,1.2221,5.8281
2023-04-06,20.62,0.56,1.1286,5.4732
2023-04-07,20.44,0.56,1.025,5.0147
2023-04-08,20.04,0.89,1.025,5.1148
2023-04-09,20.28,0.57,1.005,4.9556
2023-04-10,20.89,0.87,0.9486,4.5408
2023-04-11,22.98,2.86,1.0614,4.6189
2023-04-12,23.8,2.19,1.1371,4.7779
2023-04-13,24.43,1.67,1.1486,4.7015
2023-04-14,24.71,1.76,1.1707,4.7378
2023-04-15,24.05,0.99,1.1986,4.9837
2023-04-16,25.34,1.68,1.2421,4.9019
2023-04-17,24.58,1.72,1.29,5.2482
2023-04-18,24.82,1.44,1.3229,5.3298
2023-04-19,22.66,3.27,1.5021,6.6291
2023-04-20,22.2,1.59,1.5757,7.0978
2023-04-21,21.25,1.41,1.6364,7.7008
2023-04-22,21.79,0.94,1.64,7.5264
2023-04-23,21.47,1.34,1.695,7.8947
2023-04-24,21.38,1.02,1.7057,7.9781
2023-04-25,21.93,1.24,1.59,7.2503
2023-04-26,21.28,2.61,1.62,7.6128
2023-04-27,22.33,1.34,1.5964,7.1493
2023-04-28,23.34,1.34,1.5664,6.7113
2023-04-29,23.19,0.99,1.5664,6.7548
2023-04-30,22.74,1.3,1.5393,6.7691
2023-05-01,21.96,1.34,1.5121,6.8859
2023-05-02,22.25,0.63,1.4543,6.5361
2023-05-03,22.24,1.07,1.2971,5.8325
2023-05-04,21.74,0.88,1.2464,5.7333
2023-05-05,22.82,1.51,1.2536,5.4933
2023-05-06,21.91,1.67,1.3057,5.9594
2023-05-07,21.66,1.15,1.2921,5.9656
2023-05-08,20.62,1.81,1.3486,6.5401
2023-05-09,20.65,0.6,1.3029,6.3092
2023-05-10,20.91,1.57,1.2286,5.8755
2023-05-11,20.17,1.24,1.2214,6.0557
2023-05-12,20.9,1.15,1.2079,5.7792
2023-05-13,20.84,0.52,1.1743,5.6348
2023-05-14,20.93,0.66,1.1286,5.3921
2023-05-15,20.99,0.92,1.0986,5.2338
2023-05-16,20.67,0.7,1.1036,5.339
2023-05-17,21.06,0.81,1.085,5.1519
2023-05-18,20.34,1.02,1.095,5.3835
2023-05-19,20.36,0.38,1.0143,4.9818
2023-05-20,20.28,0.29,0.9157,4.5154
2023-05-21,19.61,1.06,0.9093,4.6368
2023-05-22,19.53,0.75,0.8336,4.2682
2023-05-23,20.02,0.76,0.845,4.2208
2023-05-24,19.22,1.41,0.8336,4.337
2023-05-25,19.25,0.81,0.8029,4.1707
2023-05-26,19.35,0.48,0.755,3.9018
2023-05-27,20.43,1.21,0.8043,3.9368
2023-05-28,20.81,0.9,0.8214,3.9473
2023-05-29,20.57,0.72,0.8071,3.9239
2023-05-30,21.25,0.94,0.8243,3.879
2023-05-31,20.81,0.96,0.835,4.0125
2023-06-01,20.49,0.57,0.8029,3.9183
2023-06-02,21.26,1.07,0.8521,4.0082
2023-06-03,21.19,0.4,0.86,4.0585
2023-06-04,21.82,1.27,0.875,4.0101
2023-06-05,20.0,3.03,1.0379,5.1893
2023-06-06,20.38,1.47,1.0886,5.3414
2023-06-07,18.64,2.03,1.1329,6.0776
2023-06-08,18.89,0.88,1.1379,6.0236
2023-06-09,17.4,2.26,1.265,7.2701
2023-06-10,15.61,4.63,1.5093,9.6687
2023-06-11,15.55,1.07,1.5214,9.7841
2023-06-12,15.19,0.95,1.5379,10.1241
2023-06-13,15.04,1.24,1.5593,10.3676
2023-06-14,14.48,1.31,1.5843,10.9412
2023-06-15,14.77,0.9,1.6079,10.886
2023-06-16,15.31,1.09,1.6093,10.5113
2023-06-17,15.64,0.96,1.6493,10.5453
2023-06-18,15.45,0.56,1.5986,10.3467
2023-06-19,16.1,0.8,1.4393,8.9397
2023-06-20,16.64,0.96,1.4029,8.4306
2023-06-21,17.23,0.86,1.3193,7.6569
2023-06-22,16.62,1.18,1.3407,8.0669
2023-06-23,17.13,1.37,1.2771,7.4556
2023-06-24,16.64,1.16,1.0293,6.1856
2023-06-25,16.96,0.81,1.0107,5.9594
2023-06-26,16.27,1.23,1.0307,6.3351
2023-06-27,16.63,0.8,0.9993,6.0089
2023-06-28,15.97,1.05,0.9807,6.141
2023-06-29,17.99,2.41,1.0886,6.051
2023-06-30,18.86,3.02,1.2264,6.5028
2023-07-01,18.7,1.1,1.2364,6.6119
2023-07-02,19.45,1.21,1.2829,6.5957
2023-07-03,19.26,0.79,1.2821,6.657
2023-07-04,19.13,0.88,1.2764,6.6724
2023-07-05,19.0,1.21,1.3014,6.8496
2023-07-06,19.61,2.18,1.3729,7.0008
2023-07-07,21.5,2.64,1.4636,6.8073
2023-07-08,21.81,1.18,1.465,6.7171
2023-07-09,21.32,1.39,1.5064,7.0658
2023-07-10,21.3,1.34,1.5143,7.1093
2023-07-11,22.07,1.17,1.5407,6.981
2023-07-12,21.94,1.06,1.5414,7.0257
2023-07-13,26.01,5.4,1.755,6.7474
2023-07-14,26.67,6.9,2.0321,7.6196
2023-07-15,27.46,2.67,2.1443,7.8088
2023-07-16,27.42,2.24,2.2179,8.0885
2023-07-17,26.8,2.94,2.3714,8.8486
2023-07-18,25.54,2.33,2.475,9.6907
2023-07-19,26.31,1.64,2.5057,9.5238
2023-07-20,25.38,2.35,2.5179,9.9206
2023-07-21,25.5,0.94,2.3964,9.3978
2023-07-22,24.52,1.97,2.4529,10.0035
2023-07-23,24.76,1.11,2.4329,9.8258
2023-07-24,23.37,1.94,2.4757,10.5936
2023-07-25,23.27,0.87,2.4543,10.547
2023-07-26,25.17,2.51,2.5579,10.1623
2023-07-27,25.1,0.99,2.2429,8.9357
2023-07-28,24.82,1.02,1.8229,7.3443
2023-07-29,25.17,0.64,1.6779,6.6661
2023-07-30,24.25,1.74,1.6421,6.7717
2023-07-31,23.73,1.27,1.5229,6.4174
2023-08-01,24.05,1.23,1.4443,6.0053
2023-08-02,23.15,1.47,1.4321,6.1864
2023-08-03,22.65,0.94,1.3314,5.8783
2023-08-04,22.8,1.09,1.3421,5.8866
2023-08-05,22.65,0.71,1.2521,5.5282
2023-08-06,23.2,0.9,1.2371,5.3325
2023-08-07,23.12,1.4,1.1986,5.1841
2023-08-08,24.22,1.77,1.2629,5.2141
2023-08-09,24.38,0.89,1.1471,4.7053
2023-08-10,24.62,0.76,1.1307,4.5927
2023-08-11,24.62,0.59,1.1,4.4679
2023-08-12,24.91,0.84,1.1143,4.4732
2023-08-13,24.23,0.74,1.0429,4.304
2023-08-14,25.18,1.24,1.0407,4.1331
2023-08-15,23.9,1.68,1.0729,4.4889
2023-08-16,22.82,1.67,1.0871,4.764
2023-08-17,21.66,3.43,1.265,5.8403
2023-08-18,21.34,1.3,1.28,5.9981
2023-08-19,21.9,0.89,1.2929,5.9035
2023-08-20,21.77,0.47,1.2621,5.7976
2023-08-21,21.2,1.49,1.2686,5.9838
2023-08-22,20.59,1.91,1.2786,6.2097
2023-08-23,21.74,1.49,1.3214,6.0783
2023-08-24,21.06,1.35,1.3636,6.4747
2023-08-25,20.42,0.97,1.3907,6.8105
2023-08-26,20.29,0.25,1.3486,6.6465
2023-08-27,20.79,0.68,1.3443,6.466
2023-08-28,20.56,0.77,1.3107,6.3751
2023-08-29,21.79,1.93,1.3286,6.0972
2023-08-30,20.82,1.39,1.3086,6.2852
2023-08-31,19.74,1.64,1.1807,5.9813
2023-09-01,19.33,0.91,1.1529,5.9641
2023-09-02,19.5,0.56,1.1293,5.7912
2023-09-03,19.57,0.44,1.1271,5.7595
2023-09-04,19.52,0.9,1.085,5.5584
2023-09-05,20.26,1.57,1.0607,5.2355
2023-09-06,19.64,1.25,1.0436,5.3135
2023-09-07,19.92,0.68,0.9957,4.9986
2023-09-08,19.61,0.91,0.9914,5.0557
2023-09-09,19.44,0.23,0.99,5.0926
2023-09-10,18.24,1.66,1.06,5.8114
2023-09-11,17.72,1.13,1.0857,6.1271
2023-09-12,17.92,1.23,1.0357,5.7797
2023-09-13,18.4,0.87,0.9986,5.427
2023-09-14,18.85,0.95,0.9493,5.036
2023-09-15,19.14,0.95,0.9521,4.9746
2023-09-16,19.12,0.6,0.955,4.9948
2023-09-17,18.81,0.51,0.96,5.1037
2023-09-18,19.64,1.57,1.0079,5.1317
2023-09-19,20.03,0.84,0.9557,4.7714
2023-09-20,20.29,0.74,0.9193,4.5307
2023-09-21,19.46,1.0,0.9421,4.8414
2023-09-22,19.43,0.66,0.9243,4.757
2023-09-23,19.49,0.28,0.9279,4.7607
2023-09-24,19.36,0.48,0.8436,4.3573
2023-09-25,19.39,0.67,0.8107,4.1811
2023-09-26,19.03,0.69,0.7721,4.0575
2023-09-27,19.14,0.75,0.7636,3.9894
2023-09-28,19.96,0.88,0.7586,3.8005
2023-09-29,20.28,0.61,0.7343,3.6207
2023-09-30,21.37,1.74,0.8157,3.8171
2023-10-01,23.87,3.37,1.02,4.2731
2023-10-02,23.37,1.9,1.0436,4.4654
2023-10-03,23.6,1.56,1.095,4.6398
2023-10-04,23.13,1.28,1.1336,4.9009
2023-10-05,22.7,1.23,1.15,5.0661
2023-10-06,23.41,1.1,1.1814,5.0467
2023-10-07,23.3,1.13,1.2421,5.3311
2023-10-08,23.22,0.58,1.2493,5.3802
2023-10-09,22.1,1.78,1.3286,6.0116
2023-10-10,22.11,0.79,1.3357,6.0412
2023-10-11,22.01,0.81,1.34,6.0881
2023-10-12,21.28,1.12,1.3571,6.3776
2023-10-13,21.84,1.12,1.3936,6.3808
2023-10-14,22.0,0.51,1.3057,5.9351
2023-10-15,21.93,0.51,1.1014,5.0225
2023-10-16,23.95,2.86,1.17,4.8852
2023-10-17,23.93,1.1,1.1371,4.752
2023-10-18,23.42,1.07,1.1221,4.7914
2023-10-19,24.93,2.66,1.2243,4.9109
2023-10-20,27.03,2.77,1.3436,4.9707
2023-10-21,29.32,3.66,1.5243,5.1988
2023-10-22,29.05,1.92,1.62,5.5766
2023-10-23,31.88,4.07,1.7836,5.5946
2023-10-24,30.17,3.11,1.9493,6.461
2023-10-25,32.44,3.9,2.17,6.6893
2023-10-26,32.77,2.55,2.2721,6.9336
2023-10-27,31.73,2.15,2.3457,7.3927
2023-10-28,31.63,1.16,2.3921,7.5629
2023-10-29,32.83,1.92,2.4929,7.5932
2023-10-30,34.94,3.07,2.5079,7.1776
2023-10-31,38.4,3.8,2.7007,7.0331
2023-11-01,41.15,9.09,3.2736,7.9552
2023-11-02,40.23,5.92,3.5064,8.716
2023-11-03,39.45,2.28,3.4714,8.7996
2023-11-04,42.41,3.72,3.4757,8.1955
2023-11-05,41.15,2.75,3.535,8.5905
2023-11-06,42.16,2.54,3.4257,8.1255
2023-11-07,42.93,4.7,3.5393,8.2443
2023-11-08,43.13,1.63,3.3771,7.8301
2023-11-09,45.29,7.52,3.7321,8.2405
2023-11-10,56.67,12.49,4.4707,7.889
2023-11-11,56.34,10.4,5.1307,9.1067
2023-11-12,56.28,7.36,5.5193,9.8068
2023-11-13,51.6,8.58,5.9129,11.459
2023-11-14,56.81,6.87,6.1321,10.7941
2023-11-15,65.43,10.97,6.2664,9.5773
2023-11-16,57.8,11.89,6.6929,11.5793
2023-11-17,58.51,6.47,6.9921,11.9503
2023-11-18,58.56,4.67,7.06,12.056
2023-11-19,61.1,5.49,7.2557,11.8751
2023-11-20,56.57,5.33,7.455,13.1784
2023-11-21,51.65,6.17,7.56,14.637
2023-11-22,57.56,7.51,7.98,13.8638
2023-11-23,56.51,3.49,7.6921,13.612
2023-11-24,56.86,2.59,6.985,12.2846
2023-11-25,58.82,4.12,6.5364,11.1126
2023-11-26,57.57,2.92,6.2193,10.803
2023-11-27,55.06,4.62,5.9364,10.7817
2023-11-28,58.18,4.71,5.7821,9.9384
2023-11-29,59.31,4.06,5.2886,8.9168
2023-11-30,59.3,2.95,4.65,7.8415
2023-12-01,59.75,3.3,4.4236,7.4035
2023-12-02,63.66,4.23,4.3921,6.8994
2023-12-03,62.98,3.31,4.2364,6.7266
2023-12-04,61.64,5.5,4.2486,6.8926
2023-12-05,61.03,3.49,4.0571,6.6478
2023-12-06,61.85,5.65,3.9243,6.3448
2023-12-07,67.74,7.73,4.2271,6.2402
2023-12-08,74.94,7.56,4.5821,6.1144
2023-12-09,72.3,6.28,4.7364,6.5511
2023-12-10,74.87,4.22,4.8293,6.4502
2023-12-11,70.25,10.82,5.2721,7.5048
2023-12-12,68.6,6.67,5.4121,7.8894
2023-12-13,70.62,8.93,5.76,8.1563
2023-12-14,75.68,8.06,6.125,8.0933
2023-12-15,72.51,7.37,6.4157,8.848
2023-12-16,73.72,6.04,6.545,8.8782
2023-12-17,70.87,4.69,6.6436,9.3743
2023-12-18,74.42,8.46,6.855,9.2112
2023-12-19,73.0,4.59,6.9336,9.498
2023-12-20,82.21,11.18,7.3286,8.9145
2023-12-21,93.84,14.51,7.8129,8.3257
2023-12-22,97.9,9.16,7.9271,8.0972
2023-12-23,107.88,17.2,8.7071,8.0711
2023-12-24,112.45,10.8,9.1771,8.1611
2023-12-25,120.91,18.44,9.7214,8.0402
2023-12-26,112.49,19.27,10.6214,9.4421
2023-12-27,106.91,10.72,10.7493,10.0545
2023-12-28,101.8,12.52,11.0679,10.8722
2023-12-29,106.17,11.0,11.3271,10.6689
2023-12-30,101.9,6.85,11.385,11.1727
2023-12-31,101.72,5.67,11.455,11.2613
2024-01-01,109.91,8.49,11.4571,10.4241
2024-01-02,106.73,10.93,11.91,11.159
2024-01-03,98.52,24.9,12.89,13.0836
2024-01-04,104.91,11.55,12.6786,12.0852
2024-01-05,99.94,10.25,12.7564,12.7641
2024-01-06,93.77,8.77,12.1543,12.9618
2024-01-07,89.44,9.12,12.0343,13.4551
2024-01-08,97.88,14.81,11.775,12.03
2024-01-09,99.36,9.64,11.0871,11.1586
2024-01-10,102.0,13.84,11.31,11.0882
2024-01-11,99.9,9.65,11.105,11.1161
2024-01-12,92.12,13.49,11.2829,12.248
2024-01-13,95.85,7.54,11.3321,11.8228
2024-01-14,93.81,9.25,11.5879,12.3525
2024-01-15,94.36,3.99,11.2664,11.9398
2024-01-16,97.61,4.57,10.8121,11.0769
2024-01-17,102.1,6.3,9.4836,9.2885
2024-01-18,94.4,12.18,9.5286,10.0938
2024-01-19,93.62,8.43,9.3986,10.0391
2024-01-20,92.88,4.07,9.0629,9.7576
2024-01-21,91.09,3.14,8.6357,9.4804
2024-01-22,83.84,9.84,8.2807,9.8768
2024-01-23,84.35,7.0,8.0921,9.5935
2024-01-24,88.77,6.17,7.5443,8.4987
2024-01-25,86.91,4.55,7.18,8.2614
2024-01-26,92.28,7.76,6.7707,7.3371
2024-01-27,94.28,3.82,6.505,6.8997
2024-01-28,95.98,6.13,6.2821,6.5453
2024-01-29,101.68,6.92,6.4914,6.3842
2024-01-30,101.4,5.54,6.5607,6.4701
2024-01-31,96.96,6.83,6.5986,6.8055
2024-02-01,97.81,5.0,6.0857,6.222
2024-02-02,100.58,5.18,5.8536,5.8198
2024-02-03,97.96,4.71,5.8993,6.0221
2024-02-04,95.49,3.51,5.9257,6.2056
2024-02-05,95.66,4.59,5.5507,5.8025
2024-02-06,96.88,5.0,5.4079,5.582
2024-02-07,101.14,6.96,5.4643,5.4027
2024-02-08,102.76,4.47,5.4586,5.312
2024-02-09,106.94,6.37,5.3593,5.0115
2024-02-10,109.01,4.0,5.3721,4.9281
2024-02-11,107.46,3.43,5.1793,4.8197
2024-02-12,111.64,8.82,5.315,4.7608
2024-02-13,112.48,6.9,5.4121,4.8116
2024-02-14,116.97,8.08,5.5014,4.7033
2024-02-15,113.5,6.88,5.6357,4.9654
2024-02-16,110.33,6.31,5.7164,5.1812
2024-02-17,108.92,6.08,5.8143,5.3381
2024-02-18,112.24,6.53,6.03,5.3724
2024-02-19,111.53,4.12,5.9964,5.3765
2024-02-20,108.31,9.11,6.29,5.8074
2024-02-21,105.03,8.17,6.3764,6.0711
2024-02-22,101.76,5.57,6.455,6.3434
2024-02-23,99.9,4.46,6.3186,6.3249
2024-02-24,104.01,6.37,6.4879,6.2377
2024-02-25,103.47,2.43,6.4164,6.2012
2024-02-26,109.9,10.6,6.5436,5.9541
2024-02-27,108.36,7.01,6.5514,6.046
2024-02-28,119.03,12.21,6.8464,5.7519
2024-02-29,125.68,17.5,7.605,6.0511
2024-03-01,129.43,12.19,8.025,6.2003
2024-03-02,130.02,4.49,7.9114,6.0848
2024-03-03,130.16,7.94,8.0121,6.1556
2024-03-04,133.27,7.6,8.2607,6.1985
2024-03-05,125.31,37.72,10.3043,8.223
2024-03-06,130.79,14.95,10.7886,8.2488
2024-03-07,143.82,18.78,11.7321,8.1575
2024-03-08,144.79,10.64,12.1736,8.4077
2024-03-09,144.29,5.61,12.1193,8.3993
2024-03-10,144.39,8.07,12.5221,8.6724
2024-03-11,148.83,13.71,12.7443,8.563
2024-03-12,151.05,13.5,13.2079,8.744
2024-03-13,163.9,18.02,13.6229,8.3117
2024-03-14,176.65,19.3,13.7514,7.7846
2024-03-15,183.95,24.48,14.6293,7.9529
2024-03-16,182.05,21.17,15.8207,8.6903
2024-03-17,201.86,26.65,17.1571,8.4995
2024-03-18,195.92,16.38,17.7843,9.0773
2024-03-19,169.82,32.68,17.4243,10.2604
2024-03-20,191.77,30.74,18.5521,9.6742
2024-03-21,179.46,19.84,18.6279,10.3799
2024-03-22,175.21,14.38,18.895,10.7842
2024-03-23,172.65,8.62,19.11,11.0686
2024-03-24,183.88,15.53,19.6429,10.6824
2024-03-25,188.99,13.68,19.6407,10.3925
2024-03-26,190.46,10.57,19.4314,10.2024
2024-03-27,186.33,12.74,19.0543,10.2261
2024-03-28,189.63,10.01,18.3907,9.6982
2024-03-29,192.01,9.61,17.3286,9.0248
2024-03-30,194.2,9.29,16.48,8.4861
2024-03-31,202.45,9.48,15.2536,7.5345
2024-04-01,192.24,17.59,15.34,7.9796
2024-04-02,181.53,16.32,14.1714,7.8067
2024-04-03,185.05,15.08,13.0529,7.0537
2024-04-04,184.0,10.11,12.3579,6.7162
2024-04-05,174.37,17.23,12.5614,7.2039
2024-04-06,178.68,6.35,12.3993,6.9394
2024-04-07,179.52,5.86,11.7086,6.5222
2024-04-08,180.68,9.43,11.405,6.3123
2024-04-09,172.42,11.79,11.4921,6.6652
2024-04-10,173.31,13.22,11.5264,6.6508
2024-04-11,172.37,6.25,11.2579,6.5312
2024-04-12,153.16,34.98,13.07,8.5336
2024-04-13,138.47,39.0,15.1921,10.9714
2024-04-14,151.25,22.39,16.1143,10.6541
2024-04-15,138.51,22.5,16.465,11.8872
2024-04-16,136.22,14.17,16.3114,11.9743
2024-04-17,131.84,15.9,16.37,12.4166
2024-04-18,142.07,16.63,16.8357,11.8503
2024-04-19,142.5,18.99,16.9614,11.9028
2024-04-20,151.22,12.73,17.4171,11.5178
2024-04-21,148.8,6.82,17.4857,11.7512
2024-04-22,156.95,11.87,17.66,11.252
2024-04-23,154.75,6.96,17.315,11.189
2024-04-24,147.78,14.22,17.3864,11.7651
2024-04-25,144.84,7.51,17.4764,12.066
2024-04-26,139.23,7.45,15.51,11.1398
2024-04-27,141.31,10.16,13.45,9.5181
2024-04-28,137.99,7.79,12.4071,8.9913
2024-04-29,137.77,5.55,11.1964,8.1269
2024-04-30,126.77,18.56,11.51,9.0794
2024-05-01,134.64,17.5,11.6243,8.6336
2024-05-02,137.58,12.71,11.3443,8.2456
2024-05-03,143.69,9.12,10.6393,7.4043
2024-05-04,146.05,6.92,10.2243,7.0005
2024-05-05,145.73,4.9,10.0871,6.9218
2024-05-06,152.82,11.49,10.06,6.5829
2024-05-07,148.03,11.43,10.3793,7.0116
2024-05-08,142.18,12.0,10.2207,7.1886
2024-05-09,152.57,12.78,10.5971,6.9458
2024-05-10,146.01,11.26,10.8693,7.4442
2024-05-11,145.42,4.58,10.4707,7.2003
2024-05-12,143.43,5.3,10.2929,7.1762
2024-05-13,147.54,13.1,10.8321,7.3418
2024-05-14,142.03,7.27,10.0257,7.0589
2024-05-15,158.52,17.67,10.0379,6.3322
2024-05-16,159.37,8.33,9.725,6.1022
2024-05-17,169.44,14.68,10.1221,5.9739
2024-05-18,172.4,7.41,10.1571,5.8916
2024-05-19,169.93,9.54,10.4886,6.1723
2024-05-20,186.7,20.85,11.1571,5.976
2024-05-21,178.15,14.52,11.3779,6.3867
2024-05-22,176.95,10.04,11.2379,6.3509
2024-05-23,176.16,15.69,11.4457,6.4973
2024-05-24,167.7,13.66,11.6171,6.9273
2024-05-25,168.35,4.65,11.6221,6.9036
2024-05-26,163.41,7.4,11.7721,7.2041
2024-05-27,170.15,9.02,11.4807,6.7474
2024-05-28,168.68,8.32,11.5557,6.8507
2024-05-29,168.32,6.93,10.7886,6.4096
2024-05-30,166.88,9.45,10.8686,6.5128
2024-05-31,165.65,7.27,10.3393,6.2416
2024-06-01,166.14,2.31,9.975,6.004
2024-06-02,163.15,5.78,9.7064,5.9494
2024-06-03,164.89,5.42,8.6043,5.2182
2024-06-04,171.78,7.56,8.1071,4.7195
2024-06-05,173.54,5.6,7.79,4.4889
2024-06-06,170.15,6.89,7.1614,4.2089
2024-06-07,162.5,19.93,7.6093,4.6826
2024-06-08,157.83,6.41,7.735,4.9008
2024-06-09,162.12,6.52,7.6721,4.7324
2024-06-10,159.05,5.72,7.4364,4.6755
2024-06-11,149.31,14.55,7.8814,5.2786
2024-06-12,155.22,16.4,8.5579,5.5134
2024-06-13,147.29,9.19,8.5393,5.7976
2024-06-14,143.05,9.33,8.6864,6.0723
2024-06-15,145.52,2.86,8.7257,5.9962
2024-06-16,151.3,8.27,8.9036,5.8847
2024-06-17,143.27,11.94,9.3693,6.5396
2024-06-18,137.41,15.87,9.9629,7.2505
2024-06-19,135.62,7.43,10.0936,7.4425
2024-06-20,133.55,9.39,10.2721,7.6916
2024-06-21,134.6,6.62,9.3214,6.9253
2024-06-22,133.69,3.74,9.1307,6.8298
2024-06-23,128.69,6.87,9.1557,7.1145
2024-06-24,132.33,10.66,9.5086,7.1855
2024-06-25,136.58,8.7,9.0907,6.656
2024-06-26,136.81,5.56,8.3164,6.0788
2024-06-27,149.71,16.01,8.8036,5.8804
2024-06-28,140.03,11.83,8.9821,6.4144
2024-06-29,140.28,3.59,9.0343,6.4402
2024-06-30,146.61,10.53,9.1957,6.2722
2024-07-01,146.67,3.49,8.5921,5.8581
2024-07-02,154.03,8.86,8.0914,5.2532
2024-07-03,140.84,15.49,8.6671,6.1539
2024-07-04,127.86,15.55,9.1071,7.1227
2024-07-05,134.32,15.58,9.7471,7.2567
2024-07-06,143.05,12.02,10.3386,7.2272
2024-07-07,131.64,12.1,10.7121,8.1375
2024-07-08,139.81,14.23,10.9671,7.8443
2024-07-09,141.42,7.88,10.9086,7.7136
2024-07-10,141.98,7.6,11.0543,7.7858
2024-07-11,135.73,10.46,10.6579,7.8522
2024-07-12,139.46,6.63,10.2864,7.3759
2024-07-13,141.9,5.66,10.4343,7.3533
2024-07-14,147.66,6.69,10.16,6.8807
2024-07-15,159.38,12.95,10.8357,6.7987
2024-07-16,160.62,9.92,10.9114,6.7933
2024-07-17,155.5,9.12,10.4564,6.7244
2024-07-18,159.22,6.53,9.8121,6.1626
2024-07-19,169.13,16.35,9.8671,5.8341
2024-07-20,173.6,7.83,9.5679,5.5114
2024-07-21,184.49,14.9,9.7679,5.2945
2024-07-22,178.9,8.29,9.3436,5.2228
2024-07-23,173.03,10.82,9.5536,5.5213
2024-07-24,178.06,11.6,9.8393,5.5258
2024-07-25,171.85,14.17,10.1043,5.8797
2024-07-26,183.06,13.32,10.5821,5.7807
2024-07-27,183.92,10.22,10.9079,5.9308
2024-07-28,184.9,5.61,10.8307,5.8576
2024-07-29,182.57,12.41,10.7921,5.9112
2024-07-30,179.16,9.56,10.7664,6.0094
2024-07-31,171.71,13.49,11.0786,6.4519
2024-08-01,167.37,15.0,11.6836,6.9807
2024-08-02,152.77,19.43,11.9036,7.7918
2024-08-03,142.52,14.05,12.3479,8.6639
2024-08-04,138.33,14.86,12.345,8.9243
2024-08-05,129.78,29.37,13.8507,10.6725
2024-08-06,144.4,20.19,14.52,10.0554
2024-08-07,144.77,12.79,14.605,10.0884
2024-08-08,163.13,22.3,15.1857,9.309
2024-08-09,156.28,12.82,15.15,9.6941
2024-08-10,154.01,6.21,14.8636,9.651
2024-08-11,141.57,16.8,15.6629,11.0637
2024-08-12,146.29,9.59,15.4614,10.569
2024-08-13,146.65,6.9,15.2714,10.4135
2024-08-14,143.71,9.82,15.0093,10.4441
2024-08-15,142.58,9.86,14.6421,10.2694
2024-08-16,139.04,8.78,13.8814,9.9838
2024-08-17,141.93,4.38,13.1907,9.2938
2024-08-18,142.42,6.75,12.6114,8.8551
2024-08-19,144.29,5.86,10.9321,7.5765
2024-08-20,142.27,7.83,10.0493,7.0635
2024-08-21,142.79,5.72,9.5443,6.6841
2024-08-22,143.22,4.25,8.255,5.7639
2024-08-23,153.26,11.4,8.1536,5.3201
2024-08-24,160.67,10.33,8.4479,5.2579
2024-08-25,158.92,6.75,7.73,4.8641
2024-08-26,157.12,6.47,7.5071,4.778
2024-08-27,146.79,14.66,8.0614,5.4918
2024-08-28,143.95,8.77,7.9864,5.5481
2024-08-29,140.0,9.31,7.9471,5.6765
2024-08-30,137.99,9.07,7.9679,5.7742
2024-08-31,135.35,4.74,7.9936,5.9059
2024-09-01,128.5,8.49,8.1179,6.3174
2024-09-02,134.94,8.59,8.3129,6.1604
2024-09-03,127.54,10.98,8.5379,6.6943
2024-09-04,133.64,12.38,9.0136,6.7447
2024-09-05,129.41,7.73,9.2621,7.1572
2024-09-06,125.05,14.29,9.4686,7.5718
2024-09-07,127.71,5.37,9.1143,7.1367
2024-09-08,130.15,5.09,8.9957,6.9118
2024-09-09,135.08,10.13,9.2571,6.8531
2024-09-10,135.63,5.5,8.6029,6.3429
2024-09-11,132.42,7.71,8.5271,6.4395
2024-09-12,136.05,4.4,8.1764,6.0099
2024-09-13,139.02,8.1,8.1071,5.8316
2024-09-14,137.14,4.2,8.0686,5.8835
2024-09-15,131.37,7.52,7.9993,6.0891
2024-09-16,131.47,3.49,7.635,5.8074
2024-09-17,131.54,5.43,7.2386,5.5029
2024-09-18,134.34,7.38,6.8814,5.1224
2024-09-19,142.89,9.77,7.0271,4.9179
2024-09-20,146.66,11.32,6.815,4.6468
2024-09-21,149.41,5.64,6.8343,4.5742
2024-09-22,144.63,8.8,7.0993,4.9086
2024-09-23,144.79,6.94,6.8714,4.7458
2024-09-24,152.73,10.91,7.2579,4.7521
2024-09-25,147.98,6.65,7.1821,4.8535
2024-09-26,155.55,11.48,7.6879,4.9424
2024-09-27,157.64,7.54,7.6479,4.8515
2024-09-28,156.75,4.43,7.6643,4.8895
2024-09-29,158.46,6.69,7.605,4.7993
2024-09-30,152.49,8.04,7.93,5.2003
2024-10-01,145.13,15.05,8.6171,5.9375
2024-10-02,140.18,10.35,8.8293,6.2985
2024-10-03,136.82,9.85,8.835,6.4574
2024-10-04,143.24,8.6,8.6407,6.0323
2024-10-05,142.59,3.87,8.5143,5.9712
2024-10-06,146.48,4.75,8.225,5.6151
2024-10-07,143.96,8.9,8.365,5.8106
2024-10-08,143.49,4.43,7.9021,5.5071
2024-10-09,139.33,6.68,7.9043,5.6731
2024-10-10,139.03,5.4,7.47,5.3729
2024-10-11,145.53,7.94,7.4986,5.1526
2024-10-12,146.4,2.61,7.3686,5.0332
2024-10-13,147.74,4.41,7.2057,4.8773
2024-10-14,157.59,11.3,7.4386,4.7202
2024-10-15,154.76,9.43,7.0371,4.5471
2024-10-16,154.28,5.41,6.6843,4.3326
2024-10-17,150.5,8.07,6.5571,4.3569
2024-10-18,154.94,7.09,6.4493,4.1624
2024-10-19,159.79,6.4,6.63,4.1492
2024-10-20,167.4,10.36,7.0307,4.1999
2024-10-21,166.17,10.77,7.1643,4.3114
2024-10-22,167.59,8.0,7.4193,4.427
2024-10-23,170.85,10.17,7.6686,4.4885
2024-10-24,177.19,8.8,7.9114,4.4649
2024-10-25,164.9,18.48,8.6643,5.2543
2024-10-26,170.88,10.82,9.2507,5.4136
2024-10-27,176.63,8.01,9.5079,5.3829
2024-10-28,178.29,7.35,9.2257,5.1746
2024-10-29,179.42,6.97,9.05,5.044
2024-10-30,174.87,8.35,9.26,5.2954
2024-10-31,168.69,9.0,9.3264,5.5287
2024-11-01,166.1,10.57,9.575,5.7646
2024-11-02,166.17,6.5,9.5821,5.7665
2024-11-03,162.53,8.79,9.47,5.8266
2024-11-04,157.95,9.93,9.41,5.9576
2024-11-05,166.62,12.44,9.7271,5.8379
2024-11-06,186.59,23.61,10.6871,5.7276
2024-11-07,196.35,12.0,10.9157,5.5593
2024-11-08,199.85,9.36,10.2643,5.136
2024-11-09,199.89,8.59,10.105,5.0553
2024-11-10,210.07,16.59,10.7179,5.102
2024-11-11,222.13,19.84,11.61,5.2267
2024-11-12,211.64,20.5,12.5764,5.9424
2024-11-13,215.13,19.77,13.3921,6.2251
2024-11-14,209.57,16.02,13.8936,6.6296
2024-11-15,218.45,16.02,14.2829,6.5383
2024-11-16,215.71,8.64,14.4357,6.6922
2024-11-17,237.47,30.23,15.9671,6.7239
2024-11-18,239.79,14.43,16.2886,6.7928
2024-11-19,237.63,14.1,16.4071,6.9045
2024-11-20,235.48,12.17,15.59,6.6205
2024-11-21,256.37,30.2,16.89,6.5881
2024-11-22,256.9,12.92,17.1443,6.6735
2024-11-23,254.89,11.31,17.3386,6.8024
2024-11-24,252.73,18.85,17.5,6.9244
2024-11-25,234.18,25.49,17.9036,7.6452
2024-11-26,230.69,17.86,17.715,7.6791
2024-11-27,241.96,15.82,17.4329,7.2049
2024-11-28,237.59,12.48,17.18,7.2309
2024-11-29,243.33,10.22,16.7657,6.8901
2024-11-30,237.6,7.9,16.7129,7.034
2024-12-01,236.8,5.79,14.9671,6.3206
2024-12-02,225.72,18.2,15.2364,6.7501
2024-12-03,233.92,24.6,15.9864,6.8341
2024-12-04,229.15,16.33,16.2836,7.1061
2024-12-05,235.84,21.82,15.685,6.6507
2024-12-06,236.87,16.08,15.9107,6.7171
2024-12-07,238.14,9.49,15.7807,6.6267
2024-12-08,237.02,8.29,15.0264,6.3397
2024-12-09,216.63,34.28,15.6543,7.2263
2024-12-10,213.6,17.85,15.6536,7.3285
2024-12-11,227.29,19.14,15.8907,6.9914
2024-12-12,226.96,9.02,15.6436,6.8927
2024-12-13,224.79,7.84,15.4736,6.8836
2024-12-14,219.93,12.38,15.7936,7.1812
2024-12-15,224.27,9.82,16.0814,7.1706
2024-12-16,216.19,14.3,15.8029,7.3097
2024-12-17,223.15,17.59,15.3021,6.8573
2024-12-18,206.53,21.24,15.6529,7.579
2024-12-19,193.81,25.14,15.89,8.1988
2024-12-20,194.48,24.55,16.495,8.4816
2024-12-21,181.45,23.68,17.5086,9.6493
2024-12-22,180.52,10.99,17.7014,9.8058
2024-12-23,190.11,17.0,16.4671,8.6619
2024-12-24,197.09,12.87,16.1114,8.1747
2024-12-25,197.44,6.85,15.2336,7.7155
2024-12-26,188.46,13.17,15.53,8.2405
2024-12-27,184.22,11.65,15.8021,8.5779
2024-12-28,195.5,12.28,15.795,8.0793
2024-12-29,189.94,9.14,15.7464,8.2902
2024-12-30,191.38,10.58,15.4807,8.089
2024-12-31,189.31,11.23,15.0264,7.9375
2025-01-01,194.28,7.33,14.0329,7.223
2025-01-02,208.31,17.05,13.455,6.4591
2025-01-03,217.99,14.2,12.7157,5.8332
2025-01-04,216.67,4.64,11.3557,5.241
2025-01-05,213.41,7.59,11.1129,5.2073
2025-01-06,218.22,11.62,10.7286,4.9164
2025-01-07,202.17,17.31,11.0457,5.4636
2025-01-08,197.48,14.94,11.6236,5.8859
2025-01-09,184.95,17.06,11.9014,6.4349
2025-01-10,187.68,9.51,11.7486,6.2599
2025-01-11,188.09,7.9,11.4357,6.0799
2025-01-12,188.51,5.83,11.1993,5.941
2025-01-13,182.87,23.11,12.0943,6.6136
2025-01-14,187.57,8.23,11.88,6.3336
2025-01-15,205.86,20.2,12.7993,6.2175
2025-01-16,211.14,18.67,12.915,6.1168
2025-01-17,219.51,12.27,12.7771,5.8208
2025-01-18,261.97,53.38,16.2586,6.2063
2025-01-19,252.42,59.15,19.9414,7.9001
2025-01-20,242.19,43.85,22.2436,9.1843
2025-01-21,250.33,30.06,23.1543,9.2495
2025-01-22,257.36,23.6,23.7729,9.2372
2025-01-23,253.11,16.29,23.7179,9.3706
2025-01-24,253.37,23.0,24.6814,9.7413
2025-01-25,256.41,14.45,25.1493,9.8082
2025-01-26,240.5,19.84,26.15,10.8732
2025-01-27,234.89,21.79,26.0557,11.0927
2025-01-28,227.06,18.99,26.8243,11.8137
2025-01-29,228.16,15.86,26.5143,11.6209
2025-01-30,238.31,17.86,26.4564,11.1017
2025-01-31,231.77,13.58,26.55,11.4553
2025-02-01,213.03,23.72,24.4314,11.4685
2025-02-02,203.51,26.59,22.1057,10.8622
2025-02-03,216.28,42.81,22.0314,10.1865
2025-02-04,206.64,18.1,21.1771,10.2483
2025-02-05,196.12,14.25,20.5093,10.4575
2025-02-06,189.54,16.59,20.5307,10.8319
2025-02-07,191.99,15.3,19.9807,10.4072
2025-02-08,199.32,11.07,19.7393,9.9033
2025-02-09,200.47,13.84,19.3107,9.6327
2025-02-10,200.47,13.2,18.6971,9.3267
2025-02-11,197.96,11.06,18.1307,9.1588
2025-02-12,196.78,10.08,17.7179,9.0039
2025-02-13,194.25,9.69,17.1343,8.8207
2025-02-14,199.39,11.23,16.9664,8.5092
2025-02-15,194.48,7.66,15.8193,8.1341
2025-02-16,188.27,9.94,14.63,7.7708
2025-02-17,177.53,15.09,12.65,7.1256
2025-02-18,169.32,18.21,12.6579,7.4757
2025-02-19,168.93,10.55,12.3936,7.3365
2025-02-20,176.0,8.99,11.8507,6.7334
2025-02-21,168.94,13.37,11.7129,6.9331
2025-02-22,172.07,6.61,11.3943,6.6219
2025-02-23,167.94,6.65,10.8807,6.4789
2025-02-24,141.81,31.69,12.2014,8.6041
2025-02-25,144.33,15.18,12.4957,8.6577
2025-02-26,135.32,14.54,12.8143,9.4696
2025-02-27,137.68,8.19,12.7071,9.2295
2025-02-28,148.18,23.17,13.56,9.151
2025-03-01,143.66,12.68,13.9186,9.6886
2025-03-02,178.71,39.81,16.0521,8.9822
2025-03-03,142.16,40.26,17.85,12.5563
2025-03-04,144.79,16.34,17.7164,12.2359
2025-03-05,146.28,9.55,17.645,12.0625
2025-03-06,143.31,10.46,17.75,12.3857
2025-03-07,139.39,15.84,17.9264,12.8606
2025-03-08,137.01,5.8,17.8686,13.0418
2025-03-09,126.51,14.47,18.4271,14.5658
2025-03-10,118.32,16.1,17.3136,14.6328
2025-03-11,125.35,16.43,17.4029,13.8834
2025-03-12,126.62,10.11,17.0864,13.4943
2025-03-13,123.37,8.0,17.0729,13.8387
2025-03-14,133.54,13.05,16.35,12.2435
2025-03-15,135.86,4.09,15.7364,11.5828
2025-03-16,126.13,11.5,13.7143,10.8731
2025-03-17,128.01,5.09,11.2021,8.751
2025-03-18,125.33,6.43,10.4943,8.3733
2025-03-19,135.33,11.88,10.6607,7.8776
2025-03-20,127.6,9.47,10.59,8.2994
2025-03-21,128.48,5.37,9.8421,7.6604
2025-03-22,128.51,4.04,9.7164,7.5608
2025-03-23,132.84,5.85,9.1007,6.8509
2025-03-24,141.01,12.92,8.8736,6.2929
2025-03-25,143.64,9.31,8.365,5.8236
2025-03-26,137.34,9.6,8.3286,6.0642
2025-03-27,138.43,4.59,8.085,5.8405
2025-03-28,129.49,11.36,7.9643,6.1505
2025-03-29,124.58,7.86,8.2336,6.6091
2025-03-30,124.82,4.08,7.7036,6.1717
2025-03-31,124.54,5.06,7.7014,6.1839
2025-04-01,126.67,6.81,7.7286,6.1013
2025-04-02,117.42,19.21,8.2521,7.0279
2025-04-03,117.17,8.7,8.1971,6.9959
2025-04-04,122.79,10.75,8.5814,6.9887
2025-04-05,120.32,5.7,8.7,7.2307
2025-04-06,105.91,17.32,9.5193,8.9881
2025-04-07,106.99,17.74,9.8636,9.2192
2025-04-08,105.4,9.62,9.8857,9.3792
2025-04-09,119.05,19.74,10.61,8.9122
2025-04-10,112.81,11.09,11.0743,9.8168
2025-04-11,121.41,10.49,11.0121,9.0702
2025-04-12,132.24,14.7,11.5007,8.6968
2025-04-13,128.38,8.64,11.8264,9.212
2025-04-14,129.42,8.15,12.0471,9.3086
2025-04-15,126.11,8.63,12.1771,9.656
2025-04-16,131.33,10.42,11.5493,8.7941
2025-04-17,134.83,6.7,11.4064,8.4599
2025-04-18,134.04,3.55,10.8921,8.126
2025-04-19,139.87,6.92,10.9793,7.8496
2025-04-20,137.86,6.32,10.1936,7.3941
2025-04-21,136.56,9.43,9.6,7.0299
2025-04-22,148.79,15.55,10.0236,6.7367
2025-04-23,151.1,7.08,9.1193,6.0353
2025-04-24,152.55,8.03,8.9007,5.8346
2025-04-25,150.82,7.13,8.6607,5.7424
2025-04-26,149.21,5.42,7.9979,5.3601
2025-04-27,147.98,4.9,7.7307,5.2242
2025-04-28,147.84,8.77,7.775,5.2591
2025-04-29,146.31,5.39,7.5436,5.1559
2025-04-30,147.54,8.35,7.3957,5.0127
2025-05-01,150.85,6.45,7.3779,4.8909
2025-05-02,148.05,4.61,7.4536,5.0345
2025-05-03,146.71,3.23,7.19,4.9008
2025-05-04,143.95,4.31,7.0464,4.8951
2025-05-05,146.72,5.23,6.7464,4.5982
2025-05-06,146.88,5.82,6.0514,4.12
2025-05-07,147.32,4.86,5.8929,4.0
2025-05-08,164.46,17.52,6.5707,3.9953
2025-05-09,172.78,15.08,7.1386,4.1316
2025-05-10,177.89,10.26,7.4843,4.2073
2025-05-11,173.19,10.91,7.9136,4.5693
2025-05-12,174.22,13.15,8.2264,4.7219
2025-05-13,183.75,18.65,9.1736,4.9924
2025-05-14,176.64,11.65,9.4093,5.3268
2025-05-15,169.16,11.63,9.7793,5.7811
2025-05-16,167.4,7.85,10.0107,5.9801
2025-05-17,165.94,5.98,10.2071,6.1511
2025-05-18,173.3,12.23,10.7729,6.2163
2025-05-19,166.86,14.5,11.435,6.8531
2025-05-20,168.59,8.6,11.6336,6.9005
2025-05-21,173.53,10.48,12.035,6.9354
2025-05-22,179.68,8.28,11.375,6.3307
2025-05-23,174.01,14.48,11.3321,6.5124
2025-05-24,175.87,5.83,11.0157,6.2636
2025-05-25,175.74,7.74,10.7893,6.1393
2025-05-26,174.91,5.54,10.2457,5.8577
2025-05-27,176.71,8.17,9.4971,5.3744
2025-05-28,172.21,8.53,9.2743,5.3855
2025-05-29,166.71,9.38,9.1136,5.4667
2025-05-30,156.2,12.29,9.4307,6.0376
2025-05-31,156.45,5.87,9.4229,6.0229
2025-06-01,157.68,7.33,9.0729,5.754
2025-06-02,156.83,7.26,8.5557,5.4554
2025-06-03,155.19,9.5,8.62,5.5545
2025-06-04,153.26,5.03,8.2307,5.3704
2025-06-05,144.29,13.08,8.5736,5.9419
2025-06-06,147.83,8.28,8.1307,5.5
2025-06-07,150.06,6.0,8.1429,5.4264
2025-06-08,152.45,7.42,8.12,5.3263
2025-06-09,161.16,12.15,8.5921,5.3314
2025-06-10,165.12,9.35,8.6764,5.2546
2025-06-11,160.97,9.15,8.7207,5.4176
2025-06-12,152.32,9.26,8.7121,5.7196
2025-06-13,148.6,12.38,8.7186,5.8671
2025-06-14,144.64,6.73,8.78,6.0702
2025-06-15,152.97,9.32,8.9221,5.8326
2025-06-16,150.72,8.5,9.0107,5.9784
2025-06-17,147.57,8.72,8.955,6.0683
2025-06-18,146.34,5.63,8.9979,6.1486
2025-06-19,147.04,4.98,8.4193,5.7258
2025-06-20,140.11,13.12,8.765,6.2558
2025-06-21,135.43,11.7,9.1721,6.7726
2025-06-22,131.71,11.62,9.4721,7.1917
2025-06-23,144.51,16.24,9.7643,6.7568
2025-06-24,145.92,4.46,9.415,6.4522
2025-06-25,143.57,5.7,9.1686,6.3861
2025-06-26,139.06,9.38,9.1771,6.5994
2025-06-27,142.09,7.71,8.8436,6.2239
2025-06-28,150.72,11.57,9.1893,6.0969
2025-06-29,153.32,5.41,8.91,5.8114
2025-06-30,154.81,10.54,9.0557,5.8496
2025-07-01,146.88,10.79,9.2036,6.266
2025-07-02,152.27,8.62,9.4171,6.1845
2025-07-03,152.36,6.49,9.525,6.2516
2025-07-04,147.7,8.66,9.2064,6.2332
2025-07-05,147.55,2.8,8.5707,5.8087
2025-07-06,151.86,7.11,8.2486,5.4317
2025-07-07,148.88,5.9,7.51,5.0443
2025-07-08,151.67,5.03,7.5507,4.9784
2025-07-09,157.05,7.4,7.6721,4.8852
2025-07-10,164.34,9.79,7.7014,4.6863
2025-07-11,162.93,8.66,7.7693,4.7685
2025-07-12,160.69,6.16,7.3829,4.5945
2025-07-13,161.15,4.56,7.3221,4.5437
2025-07-14,162.21,8.04,7.1436,4.4039
2025-07-15,163.98,7.03,6.875,4.1926
2025-07-16,173.63,14.49,7.2943,4.2011
2025-07-17,175.87,9.48,7.5079,4.269
2025-07-18,177.28,11.43,7.7057,4.3466
2025-07-19,176.96,4.61,7.835,4.4276
2025-07-20,181.43,7.33,7.8507,4.3271
2025-07-21,195.72,21.03,8.9314,4.5634
2025-07-22,205.7,12.55,9.4686,4.6031
2025-07-23,189.4,21.78,10.4957,5.5416
2025-07-24,182.87,12.66,10.7007,5.8515
2025-07-25,186.76,11.22,10.8836,5.8276
2025-07-26,184.88,5.49,10.8357,5.8609
2025-07-27,188.64,6.17,10.9507,5.8051
2025-07-28,183.11,13.1,11.3121,6.1778
2025-07-29,181.48,8.38,11.4086,6.2864
2025-07-30,177.77,12.27,11.25,6.3284
2025-07-31,172.22,11.26,11.3771,6.6062
2025-08-01,162.71,13.06,11.4936,7.0638
2025-08-02,158.48,9.47,11.8407,7.4714
2025-08-03,161.97,6.86,11.8071,7.2897
2025-08-04,169.55,8.54,10.915,6.4376
2025-08-05,164.09,10.43,10.7636,6.5596
2025-08-06,168.09,8.8,9.8364,5.8519
2025-08-07,175.36,8.81,9.5614,5.4525
2025-08-08,176.78,6.23,9.205,5.207
2025-08-09,179.95,6.81,9.2993,5.1677
2025-08-10,182.66,8.67,9.4779,5.1888
2025-08-11,174.84,13.37,9.4971,5.4319
2025-08-12,191.78,20.16,10.3386,5.3908
2025-08-13,201.51,13.48,10.425,5.1734
2025-08-14,192.47,23.18,11.2764,5.8588
2025-08-15,185.72,14.77,11.3986,6.1375
2025-08-16,189.6,4.86,11.0693,5.8382
2025-08-17,190.99,8.54,11.1893,5.8586
2025-08-18,182.94,11.33,11.3886,6.2253
2025-08-19,176.22,10.18,11.3707,6.4526
2025-08-20,187.94,11.93,11.5943,6.1691
2025-08-21,180.29,10.67,11.7271,6.5046
2025-08-22,200.69,25.13,13.0771,6.5161
2025-08-23,204.14,13.36,13.545,6.6352
2025-08-24,205.98,10.9,13.7043,6.6532
2025-08-25,187.2,28.27,14.7686,7.8892
2025-08-26,195.86,12.52,14.2229,7.2617
2025-08-27,202.95,18.3,14.5671,7.1777
2025-08-28,214.43,15.17,13.995,6.5266
2025-08-29,205.08,18.15,14.2364,6.9419
2025-08-30,202.7,9.54,14.5707,7.1883
2025-08-31,200.62,6.38,14.4164,7.1859
2025-09-01,197.32,10.39,14.3493,7.2721
2025-09-02,209.65,12.91,14.5443,6.9374
2025-09-03,210.77,5.6,14.0921,6.686
2025-09-04,202.32,10.1,14.0514,6.9452
2025-09-05,203.36,9.05,12.9029,6.3448
2025-09-06,200.16,5.36,12.3314,6.1608
2025-09-07,206.35,7.83,12.1121,5.8697
2025-09-08,214.11,11.52,10.9157,5.0982
2025-09-09,217.21,9.0,10.6643,4.9097
2025-09-10,224.07,10.91,10.1364,4.5238
2025-09-11,228.73,7.23,9.5693,4.1837
2025-09-12,242.18,15.93,9.4107,3.8858
2025-09-13,242.38,8.41,9.33,3.8493
2025-09-14,239.76,10.37,9.615,4.0103
2025-09-15,234.31,13.85,9.8621,4.209
2025-09-16,236.96,9.69,9.6321,4.0649
2025-09-17,244.84,14.39,10.26,4.1905
2025-09-18,247.5,10.93,10.3193,4.1694
2025-09-19,238.53,13.45,10.6336,4.458
2025-09-20,239.48,4.31,10.5586,4.409
2025-09-21,236.16,6.5,10.4636,4.4307
2025-09-22,220.38,22.46,11.245,5.1026
2025-09-23,213.3,9.37,11.2714,5.2843
2025-09-24,211.6,11.64,11.3236,5.3514
2025-09-25,192.74,21.12,12.3157,6.3898
2025-09-26,205.17,14.72,12.2293,5.9606
2025-09-27,203.46,5.55,12.025,5.9103
2025-09-28,210.83,13.0,12.2129,5.7928
2025-09-29,212.75,10.16,11.9493,5.6166
2025-09-30,208.68,9.38,11.9271,5.7155
2025-10-01,222.04,16.46,12.075,5.4382
2025-10-02,234.74,15.47,12.3993,5.2821
2025-10-03,232.84,9.87,12.1436,5.2154
2025-10-04,227.86,9.98,12.5486,5.5071
2025-10-05,228.56,10.77,12.8536,5.6237
2025-10-06,232.35,10.24,11.9807,5.1563
2025-10-07,219.97,15.51,12.4193,5.6459
2025-10-08,229.02,12.42,12.475,5.4471
2025-10-09,220.93,13.16,11.9064,5.3892
2025-10-10,188.43,55.67,14.8314,7.8711
2025-10-11,177.62,18.47,15.7543,8.8697
2025-10-12,197.0,26.0,16.6829,8.4685
2025-10-13,208.69,19.26,17.3329,8.3056
2025-10-14,202.44,20.22,18.1071,8.9444
2025-10-15,193.84,16.87,18.1364,9.3564
2025-10-16,184.85,16.39,18.2021,9.847
2025-10-17,181.96,13.49,18.4607,10.1455
2025-10-18,187.56,6.51,18.2129,9.7104
2025-10-19,187.86,9.1,18.0936,9.6314
2025-10-20,189.71,10.68,18.125,9.5541
2025-10-21,185.63,14.99,18.0879,9.744
2025-10-22,180.12,10.41,17.9443,9.9624
2025-10-23,191.35,13.77,17.9879,9.4005
2025-10-24,193.59,8.17,14.595,7.5391
2025-10-25,193.84,4.06,13.5657,6.9984
2025-10-26,200.03,10.53,12.4607,6.2294
2025-10-27,198.7,7.99,11.6557,5.866
2025-10-28,194.15,13.77,11.195,5.7662
2025-10-29,193.88,12.33,10.8707,5.6069
2025-10-30,184.69,19.54,11.0957,6.0078
2025-10-31,187.21,6.56,10.6007,5.6625
2025-11-01,186.35,3.76,10.4043,5.5832
2025-11-02,187.71,6.34,10.2071,5.4377
2025-11-03,166.06,25.98,11.3,6.8048
2025-11-04,155.03,22.57,11.8414,7.6382
2025-11-05,162.37,16.68,12.2893,7.5687
2025-11-06,155.28,9.46,11.9814,7.716
2025-11-07,161.79,14.66,12.445,7.6921
2025-11-08,158.02,9.09,12.8043,8.103
2025-11-09,164.53,11.46,12.8707,7.8227
2025-11-10,167.31,7.06,12.8043,7.653
2025-11-11,154.63,18.01,13.1071,8.4765
2025-11-12,153.42,9.94,12.9364,8.432
2025-11-13,144.73,16.16,12.695,8.7715
2025-11-14,138.92,9.92,12.935,9.3111
2025-11-15,139.61,6.08,13.1007,9.3838
2025-11-16,137.17,8.96,13.2879,9.6871
2025-11-17,130.99,14.46,12.465,9.516
2025-11-18,140.69,13.17,11.7936,8.3827
2025-11-19,137.06,12.31,11.4814,8.3769
2025-11-20,133.67,13.69,11.7836,8.8154
2025-11-21,128.68,13.4,11.6936,9.0873
2025-11-22,127.59,4.86,11.3914,8.9282
2025-11-23,130.58,5.98,11.0,8.424
2025-11-24,138.44,11.43,11.3121,8.1712
2025-11-25,138.96,7.37,10.5521,7.5937
2025-11-26,143.02,9.25,10.5029,7.3436
2025-11-27,140.85,3.82,9.6214,6.831
2025-11-28,137.33,7.59,9.455,6.8849
2025-11-29,135.91,3.34,9.2593,6.8128
2025-11-30,133.48,6.93,9.1143,6.8282
2025-12-01,126.66,10.63,8.8407,6.9799
2025-12-02,138.68,14.87,8.9621,6.4625
2025-12-03,144.67,8.32,8.6771,5.9979
2025-12-04,139.01,9.11,8.35,6.0068
2025-12-05,133.29,10.02,8.1086,6.0834
2025-12-06,132.19,2.85,7.965,6.0254
2025-12-07,132.24,8.65,8.1557,6.1674
2025-12-08,133.25,7.84,7.8993,5.9282
2025-12-09,137.88,13.31,8.3236,6.0368
2025-12-10,136.26,7.18,8.1757,6.0001
2025-12-11,136.41,8.79,8.5307,6.2537
2025-12-12,132.27,9.77,8.6864,6.5672
2025-12-13,133.14,2.68,8.6393,6.4889
2025-12-14,129.4,5.68,8.55,6.6074
2025-12-15,127.81,11.8,8.6336,6.755
2025-12-16,129.15,5.27,7.9479,6.154
2025-12-17,123.27,12.63,8.2557,6.6973
2025-12-18,119.6,12.17,8.4743,7.0855
2025-12-19,126.27,10.26,8.4914,6.7248
2025-12-20,125.81,1.59,8.4014,6.6779
2025-12-21,126.03,3.22,8.0136,6.3585
2025-12-22,125.93,4.58,7.7807,6.1786
2025-12-23,124.01,4.77,7.1707,5.7824
2025-12-24,122.53,3.67,6.92,5.6476
2025-12-25,120.06,4.75,6.6314,5.5234
2025-12-26,122.26,5.9,6.355,5.1979
2025-12-27,124.73,3.22,6.3936,5.1259
2025-12-28,125.27,2.56,6.1707,4.9259
2025-12-29,123.28,7.8,5.885,4.7737
2025-12-30,125.01,3.94,5.79,4.6316
2025-12-31,124.65,9.76,5.585,4.4805
2026-01-01,126.9,3.1,4.9371,3.8906
2026-01-02,132.29,7.41,4.7336,3.5782
2026-01-03,133.37,4.39,4.9336,3.6992
2026-01-04,134.12,2.42,4.8764,3.6359
2026-01-05,137.9,6.69,5.0271,3.6455
2026-01-06,141.08,7.29,5.2071,3.6909
2026-01-07,136.39,6.99,5.4443,3.9917
2026-01-08,138.37,7.4,5.6336,4.0714
2026-01-09,135.97,6.19,5.6543,4.1585
2026-01-10,135.84,1.68,5.5443,4.0815
2026-01-11,139.7,5.85,5.7793,4.1369
2026-01-12,139.22,6.06,5.655,4.0619
2026-01-13,145.51,10.92,6.1536,4.229
2026-01-14,146.69,5.07,5.8186,3.9666
2026-01-15,142.4,5.83,6.0136,4.223
2026-01-16,144.89,5.29,5.8621,4.0459
2026-01-17,143.72,1.67,5.6679,3.9437
2026-01-18,137.87,6.26,5.9421,4.31
2026-01-19,133.44,7.87,6.0264,4.5162
2026-01-20,125.8,9.95,6.2164,4.9415
2026-01-21,129.54,6.91,6.2107,4.7944
2026-01-22,128.47,4.21,5.9829,4.657
2026-01-23,127.43,4.92,5.8921,4.6238
2026-01-24,127.21,1.48,5.8779,4.6206
2026-01-25,118.85,10.31,6.1964,5.2137
2026-01-26,124.24,7.07,6.2686,5.0455
2026-01-27,127.19,4.72,5.8257,4.5803
2026-01-28,125.35,3.56,5.7179,4.5615
2026-01-29,117.82,10.12,6.0243,5.1131
2026-01-30,117.59,6.98,6.145,5.2258
2026-01-31,105.58,22.45,7.6293,7.2261
2026-02-01,100.79,8.67,7.8014,7.7403
2026-02-02,104.55,10.17,7.9657,7.619
2026-02-03,97.89,8.46,7.8593,8.0287
2026-02-04,92.12,10.37,8.1064,8.7999
2026-02-05,78.35,15.83,8.9364,11.4058
2026-02-06,87.46,22.34,10.1807,11.6404
2026-02-07,87.59,5.04,10.435,11.9135
2026-02-08,86.99,3.31,9.935,11.4209
2026-02-09,86.77,5.83,9.8464,11.3477
2026-02-10,82.99,5.58,9.9079,11.9386
2026-02-11,79.3,6.35,10.1071,12.7455
2026-02-12,78.4,5.65,9.7879,12.4845
2026-02-13,84.33,8.1,9.8679,11.7015
2026-02-14,88.06,4.69,8.5993,9.7653
2026-02-15,86.16,6.37,8.435,9.7899
2026-02-16,86.45,4.38,8.0214,9.2787
2026-02-17,85.08,4.77,7.7579,9.1183
2026-02-18,81.61,5.61,7.4179,9.0894
2026-02-19,82.5,3.06,6.5057,7.8857
2026-02-20,84.67,3.72,5.1757,6.1128
2026-02-21,85.17,2.75,5.0121,5.8849
2026-02-22,82.79,3.12,4.9986,6.0377
2026-02-23,77.9,5.7,4.9893,6.4047
2026-02-24,78.99,3.99,4.8757,6.1726
2026-02-25,88.06,13.37,5.3771,6.1062
2026-02-26,85.91,4.93,5.3257,6.1992
2026-02-27,81.85,7.97,5.3164,6.4953
2026-02-28,84.35,8.53,5.5907,6.628
2026-03-01,83.6,7.21,5.6507,6.7592
2026-03-02,86.64,7.92,5.9036,6.8139
2026-03-03,86.97,4.96,5.9171,6.8037
2026-03-04,90.85,9.27,6.1786,6.8008
2026-03-05,88.77,5.05,6.3207,7.1203
2026-03-06,84.7,5.67,6.46,7.6269
2026-03-07,83.22,2.79,6.4629,7.766
2026-03-08,81.59,3.87,6.5164,7.9868
2026-03-09,84.96,5.52,6.5036,7.6549
2026-03-10,85.88,3.97,6.5021,7.5712
2026-03-11,86.58,3.73,5.8136,6.7147
2026-03-12,86.84,2.97,5.6736,6.5334
2026-03-13,88.18,6.27,5.5521,6.2964
2026-03-14,88.03,2.2,5.1,5.7935
2026-03-15,92.3,5.87,5.0043,5.4218
2026-03-16,96.2,6.5,4.9029,5.0965
2026-03-17,94.62,3.8,4.82,5.0941
2026-03-18,90.08,7.1,4.665,5.1787
2026-03-19,88.89,4.41,4.6193,5.1966
2026-03-20,89.84,2.32,4.38,4.8753
2026-03-21,87.56,3.67,4.4429,5.0741
2026-03-22,86.2,4.06,4.4564,5.1699
2026-03-23,91.43,7.15,4.5729,5.0015
2026-03-24,90.8,3.8,4.5607,5.0228
2026-03-25,91.7,2.76,4.4914,4.898
2026-03-26,86.53,6.53,4.7457,5.4845
2026-03-27,83.11,5.18,4.6679,5.6165
2026-03-28,82.09,2.6,4.6964,5.7211
2026-03-29,81.44,4.28,4.5829,5.6273
2026-03-30,82.54,3.84,4.3929,5.3221
2026-03-31,83.2,4.54,4.4457,5.3434
2026-04-01,81.18,5.88,4.3586,5.369
2026-04-02,78.94,5.07,4.4057,5.5811
2026-04-03,80.4,2.06,4.3871,5.4566
2026-04-04,80.83,2.04,4.2707,5.2836
2026-04-05,81.89,3.61,4.2386,5.1759
2026-04-06,80.03,3.6,3.985,4.9794
2026-04-07,85.56,8.64,4.3307,5.0616
2026-04-08,82.57,3.66,4.395,5.3228
2026-04-09,83.33,4.55,4.2536,5.1045
2026-04-10,84.83,3.05,4.1014,4.8349
2026-04-11,84.93,2.46,4.0914,4.8174
2026-04-12,81.53,3.73,4.0521,4.9701
2026-04-13,86.51,5.41,4.1643,4.8136
2026-04-14,83.72,4.37,4.1521,4.9596
2026-04-15,84.9,3.18,3.9593,4.6635
2026-04-16,89.05,6.73,4.0779,4.5793
2026-04-17,88.76,3.39,4.1729,4.7013
2026-04-18,86.16,3.38,4.2686,4.9542
2026-04-19,83.47,4.18,4.3093,5.1627
2026-04-20,85.28,2.88,4.2579,4.9928
2026-04-21,86.03,2.58,3.825,4.4461
2026-04-22,86.87,3.31,3.8,4.3744
2026-04-23,86.12,2.7,3.6679,4.259
2026-04-24,86.18,2.02,3.5943,4.1707
2026-04-25,86.18,1.27,3.5093,4.072
2026-04-26,86.93,1.48,3.3486,3.852
2026-04-27,84.82,4.45,3.28,3.867
2026-04-28,84.06,1.95,3.1071,3.6963
2026-04-29,83.04,4.16,3.1771,3.826
2026-04-30,83.09,1.85,2.8286,3.4042
2026-05-01,83.76,1.78,2.7136,3.2397
2026-05-02,84.26,1.53,2.5814,3.0636
2026-05-03,83.91,1.39,2.3821,2.8389
2026-05-04,84.1,2.67,2.3671,2.8147
2026-05-05,86.29,2.94,2.3929,2.773
2026-05-06,89.16,3.93,2.4371,2.7334
2026-05-07,88.42,2.81,2.445,2.7652
2026-05-08,92.01,5.2,2.6721,2.9042
2026-05-09,93.13,2.32,2.7471,2.9498
2026-05-10,96.47,4.4,2.9557,3.0639
2026-05-11,97.37,4.11,2.9314,3.0106
2026-05-12,94.28,4.13,3.0871,3.2744
2026-05-13,91.17,5.72,3.1986,3.5084
2026-05-14,92.15,3.86,3.3421,3.6269
2026-05-15,89.24,4.11,3.5086,3.9316
2026-05-16,86.54,3.92,3.6793,4.2515
2026-05-17,85.24,3.79,3.8507,4.5175
2026-05-18,85.38,2.3,3.8243,4.4791
2026-05-19,84.29,2.27,3.7764,4.4803
2026-05-20,86.17,3.24,3.7271,4.3253
2026-05-21,87.36,2.68,3.7179,4.2558
2026-05-22,84.4,3.85,3.6214,4.2908
2026-05-23,85.75,6.0,3.8843,4.5298
2026-05-24,85.27,3.3,3.8057,4.4631
2026-05-25,85.06,1.81,3.6414,4.281
2026-05-26,83.72,2.98,3.5593,4.2514
2026-05-27,82.44,2.74,3.3464,4.0592
2026-05-28,82.11,3.01,3.2857,4.0016
2026-05-29,82.04,2.89,3.1986,3.8988
2026-05-30,82.73,1.31,3.0121,3.6409
2026-05-31,82.44,2.09,2.8907,3.5064
