date,close,tr,atr_14,atr_14_pct
2021-06-01,2634.57,216.26,,
2021-06-02,2706.22,252.99,,
2021-06-03,2857.25,229.55,,
2021-06-04,2689.51,308.0,,
2021-06-05,2627.73,264.64,,
2021-06-06,2711.92,131.0,,
2021-06-07,2592.05,277.55,,
2021-06-08,2507.23,316.08,,
2021-06-09,2610.18,221.35,,
2021-06-10,2471.09,199.35,,
2021-06-11,2354.01,176.62,,
2021-06-12,2370.74,198.31,,
2021-06-13,2509.33,240.0,,
2021-06-14,2580.77,148.17,227.1336,8.801
2021-06-15,2543.54,132.3,221.1364,8.694
2021-06-16,2367.89,205.01,217.7093,9.1942
2021-06-17,2373.28,154.5,212.3486,8.9475
2021-06-18,2234.09,239.0,207.42,9.2843
2021-06-19,2164.67,117.15,196.885,9.0954
2021-06-20,2243.47,239.33,204.6229,9.1208
2021-06-21,1885.49,394.62,212.985,11.296
2021-06-22,1879.28,297.52,211.6593,11.2628
2021-06-23,1968.14,223.05,211.7807,10.7604
2021-06-24,1989.52,151.82,208.3857,10.4742
2021-06-25,1808.82,228.77,212.1107,11.7265
2021-06-26,1829.64,135.48,207.6229,11.3477
2021-06-27,1982.28,180.24,203.3543,10.2586
2021-06-28,2084.41,184.48,205.9479,9.8804
2021-06-29,2165.33,171.43,208.7429,9.6402
2021-06-30,2275.68,199.79,208.37,9.1564
2021-07-01,2106.41,202.81,211.8207,10.056
2021-07-02,2154.13,141.5,204.8564,9.5099
2021-07-03,2226.99,127.99,205.6307,9.2336
2021-07-04,2322.69,200.35,202.8464,8.7333
2021-07-05,2196.53,167.32,186.6107,8.4957
2021-07-06,2322.5,157.0,176.5736,7.6027
2021-07-07,2316.57,117.1,169.0057,7.2955
2021-07-08,2116.33,240.81,175.3621,8.2861
2021-07-09,2146.99,142.89,169.2279,7.8821
2021-07-10,2110.69,120.66,168.1693,7.9675
2021-07-11,2140.45,92.98,161.9364,7.5655
2021-07-12,2031.58,161.15,160.27,7.8889
2021-07-13,1940.15,129.35,157.2643,8.1058
2021-07-14,1994.58,154.18,154.0064,7.7212
2021-07-15,1919.51,161.88,151.0829,7.8709
2021-07-16,1876.26,115.0,149.19,7.9515
2021-07-17,1899.59,74.74,145.3864,7.6536
2021-07-18,1891.64,116.69,139.4107,7.3698
2021-07-19,1818.73,114.0,135.6021,7.4559
2021-07-20,1786.03,135.34,134.055,7.5058
2021-07-21,1995.5,287.68,146.2393,7.3285
2021-07-22,2024.56,98.38,136.0657,6.7208
2021-07-23,2124.25,137.68,135.6936,6.3878
2021-07-24,2184.75,93.92,133.7836,6.1235
2021-07-25,2189.79,91.48,133.6764,6.1045
2021-07-26,2228.08,262.08,140.8857,6.3232
2021-07-27,2299.49,168.76,143.7007,6.2492
2021-07-28,2300.9,101.85,139.9629,6.083
2021-07-29,2382.92,133.88,137.9629,5.7897
2021-07-30,2461.81,155.78,140.8757,5.7224
2021-07-31,2531.05,133.18,145.05,5.7308
2021-08-01,2555.69,186.37,150.0271,5.8703
2021-08-02,2606.93,159.0,153.2414,5.8782
2021-08-03,2509.04,190.12,157.1543,6.2635
2021-08-04,2724.78,315.03,159.1079,5.8393
2021-08-05,2826.99,314.07,174.5143,6.1731
2021-08-06,2891.58,226.69,180.8721,6.2551
2021-08-07,3160.31,305.5,195.985,6.2014
2021-08-08,3011.85,240.96,206.6621,6.8616
2021-08-09,3160.52,292.77,208.8543,6.6082
2021-08-10,3141.66,181.78,209.7843,6.6775
2021-08-11,3160.5,153.73,213.49,6.7549
2021-08-12,3045.96,259.71,222.4779,7.304
2021-08-13,3322.32,294.03,232.3529,6.9937
2021-08-14,3263.16,130.98,232.1957,7.1157
2021-08-15,3307.09,208.87,233.8029,7.0697
2021-08-16,3146.53,199.78,236.7157,7.5231
2021-08-17,3011.72,298.11,244.4293,8.1159
2021-08-18,3014.55,175.81,234.485,7.7784
2021-08-19,3184.12,229.67,228.4564,7.1749
2021-08-20,3284.82,122.84,221.0386,6.7291
2021-08-21,3223.43,102.16,206.5143,6.4067
2021-08-22,3238.0,145.58,199.7014,6.1674
2021-08-23,3321.28,147.87,189.3514,5.7012
2021-08-24,3170.62,210.54,191.4057,6.0369
2021-08-25,3226.87,168.0,192.425,5.9632
2021-08-26,3093.2,196.7,187.9243,6.0754
2021-08-27,3273.45,219.82,182.6236,5.5789
2021-08-28,3244.48,76.69,178.7457,5.5092
2021-08-29,3223.47,132.66,173.3021,5.3763
2021-08-30,3229.64,204.95,173.6714,5.3774
2021-08-31,3429.2,287.23,172.8943,5.0418
2021-09-01,3826.82,459.78,193.1779,5.048
2021-09-02,3785.82,119.76,185.3271,4.8953
2021-09-03,3938.11,322.83,199.6121,5.0687
2021-09-04,3885.52,137.5,202.1364,5.2023
2021-09-05,3950.29,150.0,202.4521,5.125
2021-09-06,3926.77,105.7,199.44,5.079
2021-09-07,3434.57,942.15,251.6979,7.3284
2021-09-08,3499.0,344.84,264.3293,7.5544
2021-09-09,3424.93,176.66,262.8979,7.676
2021-09-10,3208.86,364.11,273.2043,8.5141
2021-09-11,3267.21,148.37,278.3243,8.5187
2021-09-12,3404.21,243.06,286.21,8.4075
2021-09-13,3285.35,321.81,294.5571,8.9658
2021-09-14,3434.37,167.1,285.9764,8.3269
2021-09-15,3613.55,258.38,271.5907,7.5159
2021-09-16,3567.98,195.14,276.975,7.7628
2021-09-17,3399.81,244.1,271.3514,7.9814
2021-09-18,3435.64,173.08,273.8929,7.9721
2021-09-19,3328.62,178.79,275.9493,8.2902
2021-09-20,2977.28,434.43,299.43,10.0572
2021-09-21,2765.9,453.83,264.55,9.5647
2021-09-22,3076.92,351.34,265.0143,8.613
2021-09-23,3152.5,140.65,262.4421,8.3249
2021-09-24,2928.53,425.52,266.8286,9.1113
2021-09-25,2921.73,165.95,268.0843,9.1755
2021-09-26,3059.37,377.34,277.6757,9.0762
2021-09-27,2925.59,242.23,271.9914,9.297
2021-09-28,2804.91,181.82,273.0429,9.7345
2021-09-29,2850.45,168.0,266.5871,9.3525
2021-09-30,3000.61,211.23,267.7364,8.9227
2021-10-01,3309.91,360.93,276.0814,8.3411
2021-10-02,3387.76,212.0,278.8614,8.2314
2021-10-03,3417.73,145.49,276.4829,8.0897
2021-10-04,3386.31,167.19,257.3943,7.601
2021-10-05,3515.27,181.22,237.9221,6.7682
2021-10-06,3574.89,290.11,233.5486,6.533
2021-10-07,3587.47,183.18,236.5864,6.5948
2021-10-08,3563.13,163.0,217.835,6.1136
2021-10-09,3574.82,96.93,212.905,5.9557
2021-10-10,3414.22,199.0,200.1664,5.8627
2021-10-11,3542.12,252.8,200.9214,5.6723
2021-10-12,3491.46,143.9,198.2129,5.6771
2021-10-13,3607.42,200.3,200.52,5.5585
2021-10-14,3790.82,237.96,202.4293,5.34
2021-10-15,3868.99,173.67,189.0536,4.8864
2021-10-16,3829.96,167.44,185.8707,4.8531
2021-10-17,3846.85,279.19,195.4207,5.08
2021-10-18,3744.96,217.14,198.9886,5.3135
2021-10-19,3877.03,154.89,197.1079,5.084
2021-10-20,4161.15,340.95,200.7393,4.8241
2021-10-21,4052.99,361.87,213.5029,5.2678
2021-10-22,3972.2,279.41,221.8179,5.5843
2021-10-23,4167.12,234.49,231.6436,5.5588
2021-10-24,4082.33,225.07,233.5057,5.7199
2021-10-25,4220.37,168.29,227.4693,5.3898
2021-10-26,4131.52,206.79,231.9614,5.6144
2021-10-27,3922.0,398.0,246.0829,6.2744
2021-10-28,4286.02,404.83,258.0021,6.0196
2021-10-29,4418.89,194.5,259.49,5.8723
2021-10-30,4322.68,201.86,261.9486,6.0599
2021-10-31,4287.21,234.79,258.7771,6.036
2021-11-01,4319.43,240.28,260.43,6.0293
2021-11-02,4589.89,315.17,271.8786,5.9234
2021-11-03,4603.35,210.87,262.5871,5.7043
2021-11-04,4532.32,186.57,250.0657,5.5174
2021-11-05,4474.24,131.25,239.4829,5.3525
2021-11-06,4518.0,203.83,237.2929,5.2522
2021-11-07,4612.59,135.61,230.9029,5.0059
2021-11-08,4807.98,210.97,233.9514,4.8659
2021-11-09,4732.33,124.39,228.0657,4.8193
2021-11-10,4628.78,406.07,228.6421,4.9396
2021-11-11,4719.0,202.53,214.1921,4.5389
2021-11-12,4665.46,301.86,221.8607,4.7554
2021-11-13,4644.28,123.52,216.265,4.6566
2021-11-14,4626.5,181.93,212.4893,4.5929
2021-11-15,4563.78,232.01,211.8986,4.643
2021-11-16,4209.76,460.78,222.2993,5.2806
2021-11-17,4287.8,236.43,224.125,5.227
2021-11-18,3996.9,388.37,238.5393,5.9681
2021-11-19,4294.76,335.96,253.1614,5.8947
2021-11-20,4412.17,236.02,255.4607,5.7899
2021-11-21,4258.31,208.59,260.6736,6.1215
2021-11-22,4085.97,297.26,266.8371,6.5306
2021-11-23,4339.44,325.97,281.2357,6.4809
2021-11-24,4269.36,206.29,266.9657,6.2531
2021-11-25,4524.85,301.73,274.0514,6.0566
2021-11-26,4041.2,638.0,298.0614,7.3756
2021-11-27,4095.29,155.32,300.3329,7.3336
2021-11-28,4294.78,334.51,311.2314,7.2467
2021-11-29,4444.53,182.03,307.6614,6.9222
2021-11-30,4630.26,406.64,303.7943,6.5611
2021-12-01,4582.95,254.76,305.1036,6.6574
2021-12-02,4511.21,201.83,291.7793,6.4679
2021-12-03,4215.73,622.38,312.2379,7.4065
2021-12-04,4117.25,734.91,347.8729,8.4492
2021-12-05,4196.44,216.8,348.4593,8.3037
2021-12-06,4347.59,455.15,359.7371,8.2744
2021-12-07,4306.4,169.08,348.5307,8.0933
2021-12-08,4436.91,227.54,350.0486,7.8895
2021-12-09,4105.64,411.84,357.9136,8.7176
2021-12-10,3897.94,343.71,336.8929,8.6428
2021-12-11,4089.37,268.86,345.0029,8.4366
2021-12-12,4130.0,187.38,334.4936,8.0991
2021-12-13,3781.93,471.3,355.1557,9.3909
2021-12-14,3858.99,197.74,340.2343,8.8167
2021-12-15,4019.08,448.49,354.0721,8.8098
2021-12-16,3958.11,171.32,351.8929,8.8904
2021-12-17,3875.42,294.1,328.4443,8.4751
2021-12-18,3959.93,229.92,292.3736,7.3833
2021-12-19,3924.14,148.43,287.49,7.3262
2021-12-20,3944.73,230.37,271.4343,6.8809
2021-12-21,4014.15,149.79,270.0564,6.7276
2021-12-22,3979.51,141.47,263.9086,6.6317
2021-12-23,4111.41,256.77,252.8321,6.1495
2021-12-24,4046.36,117.67,236.6864,5.8494
2021-12-25,4094.83,119.29,226.0029,5.5192
2021-12-26,4063.56,105.0,220.1186,5.4169
2021-12-27,4037.23,96.46,193.3443,4.789
2021-12-28,3792.75,277.87,199.0679,5.2486
2021-12-29,3630.19,223.58,183.0029,5.0411
2021-12-30,3709.27,184.1,183.9157,4.9583
2021-12-31,3676.23,192.71,176.6736,4.8058
2022-01-01,3765.54,102.99,167.6071,4.4511
2022-01-02,3828.27,140.14,167.015,4.3627
2022-01-03,3765.89,173.09,162.9236,4.3263
2022-01-04,3785.11,187.62,165.6257,4.3757
2022-01-05,3540.63,433.0,186.4493,5.266
2022-01-06,3406.81,250.43,185.9964,5.4595
2022-01-07,3199.24,352.34,202.7586,6.3377
2022-01-08,3080.95,250.0,212.095,6.8841
2022-01-09,3151.97,154.37,215.6214,6.8408
2022-01-10,3082.68,256.17,227.0293,7.3647
2022-01-11,3239.72,211.74,222.3057,6.8619
2022-01-12,3371.26,205.23,220.995,6.5553
2022-01-13,3240.61,176.57,220.4571,6.803
2022-01-14,3307.42,154.79,217.7486,6.5836
2022-01-15,3326.04,110.64,218.295,6.5632
2022-01-16,3346.88,123.98,217.1407,6.4879
2022-01-17,3209.67,216.47,220.2393,6.8617
2022-01-18,3159.85,161.87,218.4,6.9117
2022-01-19,3084.02,174.87,199.9621,6.4838
2022-01-20,3001.48,286.22,202.5186,6.7473
2022-01-21,2568.15,631.12,222.4314,8.6612
2022-01-22,2412.18,326.0,227.86,9.4462
2022-01-23,2539.01,185.98,230.1179,9.0633
2022-01-24,2439.29,380.75,239.0164,9.7986
2022-01-25,2458.83,157.59,235.1486,9.5634
2022-01-26,2462.99,319.97,243.3443,9.88
2022-01-27,2424.25,204.57,245.3443,10.1204
2022-01-28,2544.99,201.1,248.6521,9.7703
2022-01-29,2601.43,116.65,249.0814,9.5748
2022-01-30,2601.68,97.5,247.19,9.5012
2022-01-31,2686.94,230.7,248.2064,9.2375
2022-02-01,2787.23,139.48,246.6071,8.8478
2022-02-02,2680.67,198.16,248.2707,9.2615
2022-02-03,2695.46,150.59,238.5829,8.8513
2022-02-04,2994.99,323.6,216.6171,7.2326
2022-02-05,3012.65,102.46,200.65,6.6602
2022-02-06,3054.99,124.35,196.2479,6.4238
2022-02-07,3139.77,194.2,182.9229,5.826
2022-02-08,3116.69,207.66,186.4993,5.9839
2022-02-09,3243.94,214.7,178.98,5.5174
2022-02-10,3072.49,226.92,180.5764,5.8772
2022-02-11,2927.54,259.62,184.7564,6.311
2022-02-12,2918.88,127.68,185.5443,6.3567
2022-02-13,2871.13,117.7,186.9871,6.5127
2022-02-14,2929.75,135.96,180.22,6.1514
2022-02-15,3183.52,284.13,190.5521,5.9856
2022-02-16,3122.3,142.74,186.5936,5.9762
2022-02-17,2891.87,308.45,197.8693,6.8423
2022-02-18,2779.48,193.97,188.61,6.7858
2022-02-19,2763.63,136.51,191.0421,6.9127
2022-02-20,2621.99,188.64,195.6343,7.4613
2022-02-21,2568.02,201.51,196.1564,7.6384
2022-02-22,2636.29,165.74,193.1621,7.327
2022-02-23,2579.71,177.72,190.5207,7.3854
2022-02-24,2596.2,440.0,205.7407,7.9247
2022-02-25,2768.49,263.25,206.0,7.4409
2022-02-26,2779.47,150.5,207.63,7.4701
2022-02-27,2616.79,278.35,219.105,8.373
2022-02-28,2920.95,382.98,236.7493,8.1052
2022-03-01,2976.33,183.85,229.5864,7.7137
2022-03-02,2947.3,129.7,228.655,7.7581
2022-03-03,2833.99,185.97,219.9064,7.7596
2022-03-04,2622.1,263.17,224.8493,8.5752
2022-03-05,2665.15,95.74,221.9371,8.3274
2022-03-06,2551.29,141.29,218.555,8.5665
2022-03-07,2491.12,204.0,218.7329,8.7805
2022-03-08,2575.97,143.85,217.1693,8.4306
2022-03-09,2726.98,208.15,219.3429,8.0434
2022-03-10,2606.7,182.98,200.9843,7.7103
2022-03-11,2556.86,154.21,193.1957,7.556
2022-03-12,2568.8,63.4,186.9743,7.2787
2022-03-13,2515.65,110.32,174.9721,6.9553
2022-03-14,2589.41,110.93,155.54,6.0068
2022-03-15,2617.73,162.0,153.9793,5.8822
2022-03-16,2773.81,184.62,157.9021,5.6926
2022-03-17,2811.92,89.58,151.0171,5.3706
2022-03-18,2938.92,218.41,147.82,5.0297
2022-03-19,2950.84,96.84,147.8986,5.0121
2022-03-20,2861.38,146.96,148.3036,5.1829
2022-03-21,2890.03,130.76,143.0721,4.9505
2022-03-22,2969.64,166.42,144.6843,4.8721
2022-03-23,3036.0,124.55,138.7129,4.5689
2022-03-24,3110.76,130.0,134.9286,4.3375
2022-03-25,3102.14,117.28,132.2907,4.2645
2022-03-26,3145.0,68.3,132.6407,4.2175
2022-03-27,3295.65,173.35,137.1429,4.1613
2022-03-28,3332.92,156.14,140.3721,4.2117
2022-03-29,3400.51,152.19,139.6714,4.1074
2022-03-30,3385.79,115.06,134.7029,3.9785
2022-03-31,3281.51,183.48,141.41,4.3093
2022-04-01,3455.21,270.61,145.1386,4.2006
2022-04-02,3443.77,99.06,145.2971,4.2191
2022-04-03,3521.91,168.23,146.8164,4.1687
2022-04-04,3519.5,141.03,147.55,4.1924
2022-04-05,3406.99,155.0,146.7343,4.3069
2022-04-06,3168.51,245.11,155.3457,4.9028
2022-04-07,3227.19,125.83,155.0479,4.8044
2022-04-08,3192.39,140.5,156.7064,4.9087
2022-04-09,3258.57,87.12,158.0507,4.8503
2022-04-10,3203.04,114.22,153.8271,4.8025
2022-04-11,2979.74,263.63,161.505,5.4201
2022-04-12,3027.66,135.0,160.2771,5.2938
2022-04-13,3118.28,132.11,161.495,5.179
2022-04-14,3021.98,168.7,160.4393,5.3091
2022-04-15,3040.56,67.79,145.9521,4.8002
2022-04-16,3059.3,76.07,144.31,4.7171
2022-04-17,2988.06,101.3,139.5293,4.6696
2022-04-18,3055.56,186.38,142.7686,4.6724
2022-04-19,3101.77,100.66,138.8871,4.4777
2022-04-20,3076.04,130.05,130.6686,4.2479
2022-04-21,2983.58,237.69,138.6586,4.6474
2022-04-22,2962.39,103.97,136.0493,4.5926
2022-04-23,2933.03,64.14,134.4079,4.5826
2022-04-24,2921.0,54.97,130.1757,4.4565
2022-04-25,3006.62,228.64,127.6764,4.2465
2022-04-26,2809.67,272.54,137.5007,4.8938
2022-04-27,2888.96,125.41,137.0221,4.743
2022-04-28,2936.93,126.17,133.9843,4.5621
2022-04-29,2817.13,169.83,141.2729,5.0148
2022-04-30,2726.66,132.37,145.2943,5.3287
2022-05-01,2824.81,133.77,147.6136,5.2256
2022-05-02,2856.54,115.44,142.5464,4.9902
2022-05-03,2781.7,106.28,142.9479,5.1389
2022-05-04,2940.64,194.11,147.5236,5.0167
2022-05-05,2747.97,271.65,149.9493,5.4567
2022-05-06,2692.85,125.23,151.4679,5.6248
2022-05-07,2635.34,119.61,155.43,5.8979
2022-05-08,2519.71,158.0,162.7893,6.4606
2022-05-09,2228.55,305.78,168.2993,7.552
2022-05-10,2342.05,257.34,167.2136,7.1396
2022-05-11,2084.99,446.37,190.1393,9.1194
2022-05-12,1960.22,395.0,209.3414,10.6795
2022-05-13,2009.69,207.31,212.0186,10.5498
2022-05-14,2056.48,118.85,211.0529,10.2628
2022-05-15,2145.29,166.32,213.3779,9.9463
2022-05-16,2023.66,166.17,217.0014,10.7232
2022-05-17,2090.72,114.42,217.5829,10.4071
2022-05-18,1915.11,202.72,218.1979,11.3935
2022-05-19,2019.55,137.21,208.595,10.3288
2022-05-20,1959.08,141.0,209.7214,10.7051
2022-05-21,1975.07,53.5,204.9993,10.3793
2022-05-22,2043.19,90.08,200.1479,9.7959
2022-05-23,1973.32,131.38,187.6907,9.5114
2022-05-24,1979.41,80.81,175.0814,8.8451
2022-05-25,1942.63,87.73,149.4643,7.6939
2022-05-26,1792.23,231.01,137.7507,7.686
2022-05-27,1727.27,119.26,131.4614,7.6109
2022-05-28,1792.22,86.72,129.1664,7.2071
2022-05-29,1813.64,67.44,122.1036,6.7325
2022-05-30,1998.78,209.82,125.2214,6.2649
2022-05-31,1941.9,91.45,123.5807,6.3639
2022-06-01,1817.95,208.83,124.0171,6.8218
2022-06-02,1834.08,70.63,119.2614,6.5025
2022-06-03,1775.12,106.91,116.8264,6.5813
2022-06-04,1804.58,67.57,117.8314,6.5296
2022-06-05,1806.23,57.12,115.4771,6.3933
2022-06-06,1859.84,115.65,114.3536,6.1486
2022-06-07,1813.33,149.85,119.285,6.5782
2022-06-08,1791.88,73.49,118.2679,6.6002
2022-06-09,1788.81,55.67,105.7436,5.9114
2022-06-10,1662.91,148.39,107.8243,6.4841
2022-06-11,1532.89,185.47,114.8779,7.4942
2022-06-12,1434.84,124.0,118.9179,8.2879
2022-06-13,1209.82,289.55,124.6129,10.3001
2022-06-14,1208.9,192.65,131.8414,10.9059
2022-06-15,1237.52,235.6,133.7536,10.8082
2022-06-16,1068.5,206.3,143.4443,13.4248
2022-06-17,1086.94,66.89,140.5857,12.9341
2022-06-18,995.13,216.02,151.1893,15.1929
2022-06-19,1128.53,222.47,163.0,14.4436
2022-06-20,1128.24,117.0,163.0964,14.4558
2022-06-21,1125.85,84.77,158.4479,14.0736
2022-06-22,1050.19,83.68,159.1757,15.1568
2022-06-23,1144.72,109.7,163.035,14.2423
2022-06-24,1225.02,113.43,160.5379,13.1049
2022-06-25,1242.36,76.77,152.7736,12.297
2022-06-26,1197.79,85.4,150.0164,12.5244
2022-06-27,1192.51,66.44,134.08,11.2435
2022-06-28,1144.05,101.67,127.5814,11.1517
2022-06-29,1100.21,69.38,115.7086,10.517
2022-06-30,1071.01,108.62,108.7314,10.1522
2022-07-01,1059.73,83.56,109.9221,10.3727
2022-07-02,1067.01,50.59,98.1057,9.1945
2022-07-03,1074.26,47.56,85.6121,7.9694
2022-07-04,1151.0,115.53,85.5071,7.4289
2022-07-05,1132.5,98.56,86.4921,7.6373
2022-07-06,1186.57,93.56,87.1979,7.3487
2022-07-07,1237.49,91.11,85.87,6.939
2022-07-08,1214.04,83.31,83.7186,6.8959
2022-07-09,1217.02,30.73,80.43,6.6088
2022-07-10,1168.36,66.95,79.1121,6.7712
2022-07-11,1096.4,79.58,80.0507,7.3012
2022-07-12,1038.58,64.8,77.4171,7.4541
2022-07-13,1115.0,112.86,80.5229,7.2218
2022-07-14,1193.42,142.54,82.9457,6.9503
2022-07-15,1231.25,106.77,84.6036,6.8714
2022-07-16,1355.85,231.68,97.5386,7.1939
2022-07-17,1338.65,67.96,98.9957,7.3952
2022-07-18,1581.04,261.4,109.415,6.9204
2022-07-19,1542.32,137.89,112.2243,7.2763
2022-07-20,1521.58,136.17,115.2679,7.5755
2022-07-21,1575.45,142.42,118.9329,7.5491
2022-07-22,1535.27,133.94,122.5493,7.9823
2022-07-23,1548.67,108.51,128.105,8.2719
2022-07-24,1597.7,118.67,131.7993,8.2493
2022-07-25,1440.79,173.97,138.5414,9.6157
2022-07-26,1449.12,97.94,140.9086,9.7237
2022-07-27,1635.74,223.61,148.8193,9.098
2022-07-28,1724.52,191.52,152.3179,8.8325
2022-07-29,1721.68,110.97,152.6179,8.8645
2022-07-30,1697.0,71.84,141.2007,8.3206
2022-07-31,1678.12,88.69,142.6814,8.5025
2022-08-01,1630.28,98.56,131.05,8.0385
2022-08-02,1630.91,118.72,129.6807,7.9514
2022-08-03,1618.16,95.32,126.7629,7.8338
2022-08-04,1607.96,82.4,122.4757,7.6168
2022-08-05,1736.81,136.43,122.6536,7.062
2022-08-06,1690.6,64.67,119.5221,7.0698
2022-08-07,1700.19,61.79,115.4593,6.791
2022-08-08,1777.05,124.13,111.8993,6.2969
2022-08-09,1702.76,122.9,113.6821,6.6763
2022-08-10,1853.57,228.22,114.0114,6.1509
2022-08-11,1880.19,91.68,106.88,5.6845
2022-08-12,1958.28,111.65,106.9286,5.4603
2022-08-13,1983.55,73.5,107.0471,5.3967
2022-08-14,1935.31,124.0,109.5693,5.6616
2022-08-15,1899.06,140.16,112.5407,5.9261
2022-08-16,1876.67,62.0,108.4893,5.7809
2022-08-17,1834.25,140.69,111.73,6.0913
2022-08-18,1846.39,61.12,110.21,5.9689
2022-08-19,1609.01,245.63,118.01,7.3343
2022-08-20,1576.04,133.41,122.92,7.7993
2022-08-21,1618.13,84.18,124.5193,7.6953
2022-08-22,1624.66,99.8,122.7814,7.5574
2022-08-23,1665.41,112.31,122.025,7.327
2022-08-24,1656.56,89.21,112.0957,6.7668
2022-08-25,1695.11,68.32,110.4271,6.5145
2022-08-26,1508.18,219.6,118.1379,7.8331
2022-08-27,1491.06,70.9,117.9521,7.9106
2022-08-28,1426.76,87.0,115.3093,8.0819
2022-08-29,1551.8,137.91,115.1486,7.4203
2022-08-30,1524.59,132.52,120.1857,7.8831
2022-08-31,1554.1,95.19,116.9357,7.5243
2022-09-01,1586.16,86.23,118.7293,7.4853
2022-09-02,1575.35,103.59,108.5836,6.8927
2022-09-03,1557.46,48.43,102.5136,6.5821
2022-09-04,1579.28,43.0,99.5721,6.3049
2022-09-05,1617.8,75.43,97.8314,6.0472
2022-09-06,1559.01,132.4,99.2664,6.3673
2022-09-07,1630.0,166.84,104.8114,6.4301
2022-09-08,1635.37,68.5,104.8243,6.4098
2022-09-09,1718.23,115.62,97.3971,5.6685
2022-09-10,1774.12,82.97,98.2593,5.5385
2022-09-11,1766.11,68.9,96.9664,5.4904
2022-09-12,1716.37,90.0,93.5443,5.4501
2022-09-13,1574.4,199.97,98.3621,6.2476
2022-09-14,1638.39,94.63,98.3221,6.0011
2022-09-15,1472.75,197.2,106.2486,7.2143
2022-09-16,1433.9,77.83,104.4086,7.2814
2022-09-17,1468.83,67.01,105.7357,7.1986
2022-09-18,1334.51,144.08,112.9557,8.4642
2022-09-19,1375.98,113.35,115.6643,8.406
2022-09-20,1322.93,72.07,111.355,8.4173
2022-09-21,1245.78,188.9,112.9307,9.0651
2022-09-22,1326.46,112.76,116.0921,8.752
2022-09-23,1327.25,97.85,114.8229,8.6512
2022-09-24,1317.13,42.81,111.9543,8.4999
2022-09-25,1294.63,67.73,111.8707,8.6411
2022-09-26,1336.17,62.57,109.9114,8.2259
2022-09-27,1328.02,96.25,102.5029,7.7185
2022-09-28,1337.2,102.5,103.065,7.7075
2022-09-29,1335.7,63.5,93.515,7.0012
2022-09-30,1328.72,59.84,92.23,6.9413
2022-10-01,1311.79,31.01,89.6586,6.8348
2022-10-02,1276.72,47.93,82.7907,6.4846
2022-10-03,1323.09,66.86,79.47,6.0064
2022-10-04,1361.49,50.89,77.9571,5.7259
2022-10-05,1352.2,48.48,67.9271,5.0235
2022-10-06,1352.06,38.98,62.6571,4.6342
2022-10-07,1331.1,44.49,58.8457,4.4208
2022-10-08,1315.48,33.84,58.205,4.4246
2022-10-09,1323.13,21.74,54.92,4.1508
2022-10-10,1290.03,50.0,54.0221,4.1877
2022-10-11,1280.11,30.99,49.3607,3.856
2022-10-12,1294.44,31.62,44.2979,3.4222
2022-10-13,1287.08,111.58,47.7321,3.7086
2022-10-14,1296.27,59.73,47.7243,3.6817
2022-10-15,1274.92,38.05,48.2271,3.7828
2022-10-16,1305.95,40.68,47.7093,3.6532
2022-10-17,1331.4,42.93,46.0,3.455
2022-10-18,1310.71,55.01,46.2943,3.532
2022-10-19,1285.09,33.19,45.2021,3.5174
2022-10-20,1282.57,40.51,45.3114,3.5329
2022-10-21,1299.75,54.32,46.0136,3.5402
2022-10-22,1313.61,25.88,45.445,3.4596
2022-10-23,1364.2,72.11,49.0429,3.595
2022-10-24,1343.61,46.43,48.7879,3.6311
2022-10-25,1459.74,190.22,60.1614,4.1214
2022-10-26,1566.1,137.55,67.7279,4.3246
2022-10-27,1514.05,75.38,65.1421,4.3025
2022-10-28,1554.41,95.08,67.6671,4.3532
2022-10-29,1619.55,115.4,73.1921,4.5193
2022-10-30,1590.44,63.5,74.8221,4.7045
2022-10-31,1572.69,90.37,78.2107,4.9731
2022-11-01,1578.48,49.23,77.7979,4.9287
2022-11-02,1518.34,119.36,83.9529,5.5293
2022-11-03,1531.01,43.84,84.1907,5.499
2022-11-04,1644.78,151.6,91.1393,5.5411
2022-11-05,1626.98,45.55,92.5443,5.6881
2022-11-06,1568.29,74.63,92.7243,5.9124
2022-11-07,1568.1,63.01,93.9086,5.9887
2022-11-08,1334.77,346.98,105.1057,7.8744
2022-11-09,1102.73,263.63,114.1114,10.3481
2022-11-10,1299.28,264.07,127.5893,9.82
2022-11-11,1289.28,108.74,128.565,9.9718
2022-11-12,1257.25,53.46,124.1407,9.874
2022-11-13,1221.49,73.57,124.86,10.2219
2022-11-14,1243.28,120.07,126.9814,10.2134
2022-11-15,1253.23,56.99,127.5357,10.1766
2022-11-16,1216.17,81.61,124.8393,10.265
2022-11-17,1200.43,47.17,125.0771,10.4194
2022-11-18,1212.58,34.82,116.7357,9.6271
2022-11-19,1217.67,37.33,116.1486,9.5386
2022-11-20,1142.21,94.42,117.5621,10.2925
2022-11-21,1107.34,67.23,117.8636,10.6438
2022-11-22,1139.6,71.13,98.16,8.6135
2022-11-23,1184.52,62.25,83.7757,7.0725
2022-11-24,1203.73,37.11,67.5643,5.6129
2022-11-25,1199.3,36.57,62.4093,5.2038
2022-11-26,1205.6,39.46,61.4093,5.0937
2022-11-27,1193.88,34.68,58.6314,4.911
2022-11-28,1167.77,48.23,53.5,4.5814
2022-11-29,1216.49,70.1,54.4364,4.4749
2022-11-30,1294.46,97.27,55.555,4.2918
2022-12-01,1276.41,37.13,54.8379,4.2963
2022-12-02,1295.59,31.94,54.6321,4.2168
2022-12-03,1240.51,72.74,57.1614,4.6079
2022-12-04,1279.41,47.09,53.7807,4.2036
2022-12-05,1259.41,58.5,53.1571,4.2208
2022-12-06,1271.32,33.2,50.4479,3.9681
2022-12-07,1231.18,60.68,50.3357,4.0884
2022-12-08,1280.18,70.57,52.7257,4.1186
2022-12-09,1263.1,46.64,53.445,4.2313
2022-12-10,1266.35,24.01,52.3414,4.1333
2022-12-11,1263.01,28.9,51.9286,4.1115
2022-12-12,1275.4,38.87,51.26,4.0191
2022-12-13,1320.69,93.9,52.96,4.01
2022-12-14,1307.44,51.72,49.7064,3.8018
2022-12-15,1266.54,51.87,50.7593,4.0077
2022-12-16,1166.83,124.74,57.3879,4.9183
2022-12-17,1187.16,28.11,54.2,4.5655
2022-12-18,1183.06,29.22,52.9236,4.4734
2022-12-19,1167.82,44.49,51.9229,4.4461
2022-12-20,1216.94,67.35,54.3621,4.4671
2022-12-21,1213.78,20.37,51.4829,4.2415
2022-12-22,1217.71,55.45,50.4029,4.1392
2022-12-23,1219.99,21.99,48.6421,3.9871
2022-12-24,1220.41,13.3,47.8771,3.923
2022-12-25,1218.51,31.82,48.0857,3.9463
2022-12-26,1228.11,19.42,46.6964,3.8023
2022-12-27,1211.55,33.15,42.3571,3.4961
2022-12-28,1190.15,34.72,41.1429,3.4569
2022-12-29,1200.49,19.8,38.8521,3.2364
2022-12-30,1199.99,21.07,31.4471,2.6206
2022-12-31,1196.13,16.8,30.6393,2.5615
2023-01-01,1200.34,14.1,29.5593,2.4626
2023-01-02,1214.0,31.29,28.6164,2.3572
2023-01-03,1214.55,14.96,24.8743,2.048
2023-01-04,1256.9,59.89,27.6971,2.2036
2023-01-05,1251.24,17.14,24.9607,1.9949
2023-01-06,1269.14,40.7,26.2971,2.072
2023-01-07,1264.07,9.79,26.0464,2.0605
2023-01-08,1290.16,38.23,26.5043,2.0543
2023-01-09,1320.39,59.47,29.365,2.224
2023-01-10,1335.62,30.89,29.2036,2.1865
2023-01-11,1389.39,76.96,32.2207,2.3191
2023-01-12,1415.92,76.08,36.2407,2.5595
2023-01-13,1451.2,62.97,39.2336,2.7035
2023-01-14,1549.9,150.84,48.8079,3.1491
2023-01-15,1552.52,50.63,51.4171,3.3119
2023-01-16,1576.94,83.19,55.1243,3.4956
2023-01-17,1565.57,67.85,58.9021,3.7623
2023-01-18,1511.43,108.61,62.3821,4.1274
2023-01-19,1551.09,55.28,65.1064,4.1975
2023-01-20,1658.52,127.88,71.3336,4.301
2023-01-21,1626.66,63.05,75.1379,4.6191
2023-01-22,1627.44,59.89,76.685,4.712
2023-01-23,1626.29,62.8,76.9229,4.73
2023-01-24,1555.97,106.46,82.3207,5.2906
2023-01-25,1611.94,123.0,85.6093,5.3109
2023-01-26,1601.09,55.41,84.1329,5.2547
2023-01-27,1597.62,68.46,84.525,5.2907
2023-01-28,1572.1,50.84,77.3821,4.9222
2023-01-29,1644.72,93.67,80.4564,4.8918
2023-01-30,1566.2,112.53,82.5521,5.2709
2023-01-31,1585.33,43.55,80.8164,5.0978
2023-02-01,1641.68,92.59,79.6721,4.8531
2023-02-02,1643.12,87.83,81.9971,4.9903
2023-02-03,1663.52,50.07,76.4393,4.595
2023-02-04,1666.38,49.86,75.4971,4.5306
2023-02-05,1629.02,64.51,75.8271,4.6548
2023-02-06,1614.29,53.55,75.1664,4.6563
2023-02-07,1671.03,65.23,72.2214,4.322
2023-02-08,1650.43,67.44,68.2529,4.1355
2023-02-09,1545.35,131.77,73.7071,4.7696
2023-02-10,1513.06,65.01,73.4607,4.8551
2023-02-11,1538.51,38.0,72.5436,4.7152
2023-02-12,1514.83,54.94,69.7771,4.6063
2023-02-13,1505.24,64.17,66.3229,4.4061
2023-02-14,1555.71,86.34,69.3793,4.4597
2023-02-15,1674.92,137.45,72.5836,4.3336
2023-02-16,1637.84,109.25,74.1136,4.5251
2023-02-17,1693.87,91.49,77.0721,4.5501
2023-02-18,1691.62,33.36,75.8936,4.4864
2023-02-19,1679.75,60.45,75.6036,4.5009
2023-02-20,1703.27,69.33,76.7307,4.5049
2023-02-21,1659.76,80.36,77.8114,4.6881
2023-02-22,1643.14,71.88,78.1286,4.7548
2023-02-23,1650.53,50.25,72.3057,4.3808
2023-02-24,1607.8,89.02,74.0207,4.6039
2023-02-25,1594.58,51.65,74.9957,4.7032
2023-02-26,1641.36,63.5,75.6071,4.6064
2023-02-27,1633.45,57.22,75.1107,4.5983
2023-02-28,1605.23,50.86,72.5764,4.5212
2023-03-01,1665.22,74.72,68.0957,4.0893
2023-03-02,1647.86,58.68,64.4836,3.9132
2023-03-03,1569.45,104.86,65.4386,4.1695
2023-03-04,1566.73,28.41,65.085,4.1542
2023-03-05,1564.58,35.72,63.3186,4.047
2023-03-06,1565.84,29.05,60.4414,3.86
2023-03-07,1561.96,48.35,58.155,3.7232
2023-03-08,1532.38,47.28,56.3979,3.6804
2023-03-09,1437.32,138.45,62.6979,4.3621
2023-03-10,1426.44,71.04,61.4136,4.3054
2023-03-11,1471.97,69.67,62.7007,4.2596
2023-03-12,1580.33,145.89,68.5857,4.34
2023-03-13,1673.45,128.49,73.6764,4.4027
2023-03-14,1699.4,124.78,78.9564,4.6461
2023-03-15,1649.96,105.9,81.1836,4.9203
2023-03-16,1673.73,59.24,81.2236,4.8528
2023-03-17,1789.27,137.35,83.5443,4.6692
2023-03-18,1758.84,93.53,88.1957,5.0144
2023-03-19,1780.68,83.44,91.6043,5.1443
2023-03-20,1732.78,81.05,95.3186,5.5009
2023-03-21,1801.23,117.99,100.2929,5.568
2023-03-22,1734.33,109.86,104.7629,6.0405
2023-03-23,1813.79,127.81,104.0029,5.734
2023-03-24,1749.57,92.59,105.5421,6.0325
2023-03-25,1741.88,50.14,104.1471,5.979
2023-03-26,1773.88,61.69,98.1329,5.5321
2023-03-27,1715.22,94.35,95.6943,5.5791
2023-03-28,1772.99,94.6,93.5386,5.2758
2023-03-29,1793.07,55.51,89.9393,5.0159
2023-03-30,1793.61,66.69,90.4714,5.0441
2023-03-31,1821.52,69.37,85.6157,4.7002
2023-04-01,1820.79,35.02,81.4364,4.4726
2023-04-02,1794.51,53.11,79.27,4.4174
2023-04-03,1810.51,77.22,78.9964,4.3632
2023-04-04,1870.37,89.9,76.99,4.1163
2023-04-05,1908.69,78.4,74.7429,3.9159
2023-04-06,1872.41,56.21,69.6286,3.7187
2023-04-07,1863.72,41.15,65.9543,3.5389
2023-04-08,1848.82,32.38,64.6857,3.4988
2023-04-09,1858.92,49.98,63.8493,3.4348
2023-04-10,1910.2,72.39,62.2807,3.2604
2023-04-11,1889.86,56.26,59.5421,3.1506
2023-04-12,1917.39,80.35,61.3164,3.1979
2023-04-13,2012.01,123.45,65.3707,3.249
2023-04-14,2099.99,119.54,68.9543,3.2836
2023-04-15,2090.6,40.72,69.3614,3.3178
2023-04-16,2118.67,68.82,70.4836,3.3268
2023-04-17,2074.0,64.26,69.5579,3.3538
2023-04-18,2103.5,74.0,68.4221,3.2528
2023-04-19,1933.73,181.57,75.7914,3.9194
2023-04-20,1942.98,68.56,76.6736,3.9462
2023-04-21,1848.78,132.27,83.1821,4.4993
2023-04-22,1874.16,45.67,84.1314,4.489
2023-04-23,1862.0,45.64,83.8214,4.5017
2023-04-24,1841.84,84.0,84.6507,4.596
2023-04-25,1866.1,76.2,86.075,4.6126
2023-04-26,1866.01,179.72,93.1729,4.9932
2023-04-27,1908.68,79.77,90.0529,4.7181
2023-04-28,1890.94,49.94,85.0814,4.4994
2023-04-29,1907.8,34.95,84.6693,4.4381
2023-04-30,1870.09,72.84,84.9564,4.5429
2023-05-01,1830.73,80.37,86.1071,4.7034
2023-05-02,1870.08,58.93,85.0307,4.5469
2023-05-03,1905.12,73.88,77.3386,4.0595
2023-05-04,1877.07,51.55,76.1236,4.0554
2023-05-05,1993.3,122.71,75.4407,3.7847
2023-05-06,1896.33,159.0,83.5357,4.4051
2023-05-07,1870.4,65.74,84.9714,4.543
2023-05-08,1847.56,73.24,84.2029,4.5575
2023-05-09,1846.52,30.89,80.9664,4.3848
2023-05-10,1840.84,96.96,75.055,4.0772
2023-05-11,1794.3,69.34,74.31,4.1414
2023-05-12,1807.45,78.63,76.3593,4.2247
2023-05-13,1795.11,31.8,76.1343,4.2412
2023-05-14,1799.21,34.18,73.3729,4.0781
2023-05-15,1816.2,61.65,72.0357,3.9663
2023-05-16,1824.21,36.44,70.4293,3.8608
2023-05-17,1822.12,53.82,68.9964,3.7866
2023-05-18,1800.56,60.8,69.6571,3.8686
2023-05-19,1812.32,32.73,63.23,3.4889
2023-05-20,1819.42,21.81,53.4307,2.9367
2023-05-21,1804.91,31.77,51.0043,2.8259
2023-05-22,1817.35,36.26,48.3629,2.6612
2023-05-23,1854.05,57.26,50.2464,2.7101
2023-05-24,1799.89,76.49,48.7843,2.7104
2023-05-25,1805.6,57.4,47.9314,2.6546
2023-05-26,1827.79,41.21,45.2586,2.4761
2023-05-27,1829.89,23.94,44.6971,2.4426
2023-05-28,1908.64,95.05,49.045,2.5696
2023-05-29,1892.6,53.97,48.4964,2.5624
2023-05-30,1900.59,35.81,48.4514,2.5493
2023-05-31,1873.63,60.18,48.9057,2.6102
2023-06-01,1861.78,49.2,48.0771,2.5823
2023-06-02,1906.68,62.49,50.2029,2.633
2023-06-03,1892.06,26.32,50.525,2.6704
2023-06-04,1890.01,30.41,50.4279,2.6681
2023-06-05,1810.5,112.63,55.8829,3.0866
2023-06-06,1884.64,101.11,59.015,3.1314
2023-06-07,1832.13,76.62,59.0243,3.2216
2023-06-08,1845.64,32.97,57.2793,3.1035
2023-06-09,1840.37,28.0,56.3357,3.0611
2023-06-10,1751.53,129.96,63.9086,3.6487
2023-06-11,1752.76,39.53,59.9429,3.4199
2023-06-12,1742.57,39.33,58.8971,3.3799
2023-06-13,1740.12,45.91,59.6186,3.4261
2023-06-14,1650.95,119.6,63.8629,3.8682
2023-06-15,1666.96,54.9,64.27,3.8555
2023-06-16,1717.92,79.64,65.495,3.8125
2023-06-17,1727.76,55.74,67.5964,3.9124
2023-06-18,1720.95,35.84,67.9843,3.9504
2023-06-19,1737.11,54.19,63.81,3.6733
2023-06-20,1791.99,82.27,62.4643,3.4857
2023-06-21,1889.11,113.62,65.1071,3.4464
2023-06-22,1872.01,67.19,67.5514,3.6085
2023-06-23,1892.63,75.41,70.9379,3.7481
2023-06-24,1874.96,41.23,64.6,3.4454
2023-06-25,1898.8,61.17,66.1457,3.4836
2023-06-26,1858.97,71.92,68.4736,3.6834
2023-06-27,1889.58,57.34,69.29,3.667
2023-06-28,1828.02,73.63,66.0064,3.6108
2023-06-29,1851.99,52.16,65.8107,3.5535
2023-06-30,1933.79,123.59,68.95,3.5655
2023-07-01,1924.5,35.12,67.4771,3.5062
2023-07-02,1937.48,73.45,70.1636,3.6214
2023-07-03,1955.54,42.61,69.3364,3.5456
2023-07-04,1936.2,35.5,65.9957,3.4085
2023-07-05,1910.36,47.99,61.3079,3.2092
2023-07-06,1846.17,112.0,64.5086,3.4942
2023-07-07,1870.91,52.0,62.8364,3.3586
2023-07-08,1865.24,33.2,62.2629,3.3381
2023-07-09,1862.8,23.21,59.5514,3.1969
2023-07-10,1880.4,58.87,58.6193,3.1174
2023-07-11,1878.3,29.61,56.6386,3.0154
2023-07-12,1871.82,37.63,54.0671,2.8885
2023-07-13,2004.49,150.04,61.0586,3.0461
2023-07-14,1937.83,130.72,61.5679,3.1772
2023-07-15,1931.41,20.14,60.4979,3.1323
2023-07-16,1922.11,29.55,57.3621,2.9843
2023-07-17,1911.2,62.92,58.8129,3.0773
2023-07-18,1897.21,41.46,59.2386,3.1224
2023-07-19,1888.63,39.87,58.6586,3.1059
2023-07-20,1891.59,51.05,54.305,2.8709
2023-07-21,1891.73,21.1,52.0979,2.754
2023-07-22,1866.52,46.17,53.0243,2.8408
2023-07-23,1888.73,47.43,54.7543,2.899
2023-07-24,1850.0,57.67,54.6686,2.9551
2023-07-25,1857.66,23.26,54.215,2.9185
2023-07-26,1872.0,39.65,54.3593,2.9038
2023-07-27,1861.28,31.27,45.8757,2.4647
2023-07-28,1874.19,26.87,38.4579,2.052
2023-07-29,1880.46,17.04,38.2364,2.0334
2023-07-30,1861.79,37.13,38.7779,2.0828
2023-07-31,1856.14,26.38,36.1679,1.9486
2023-08-01,1873.47,61.82,37.6221,2.0082
2023-08-02,1839.9,58.53,38.955,2.1172
2023-08-03,1835.81,33.12,37.6743,2.0522
2023-08-04,1830.23,35.57,38.7079,2.1149
2023-08-05,1836.48,11.5,36.2314,1.9729
2023-08-06,1830.28,12.72,33.7521,1.8441
2023-08-07,1829.1,45.0,32.8471,1.7958
2023-08-08,1856.3,50.18,34.77,1.8731
2023-08-09,1855.35,25.71,33.7743,1.8204
2023-08-10,1852.47,20.57,33.01,1.7819
2023-08-11,1848.84,19.21,32.4629,1.7559
2023-08-12,1849.93,7.93,31.8121,1.7196
2023-08-13,1840.73,27.49,31.1236,1.6908
2023-08-14,1845.5,21.5,30.775,1.6676
2023-08-15,1828.98,33.36,28.7421,1.5715
2023-08-16,1807.81,33.35,26.9436,1.4904
2023-08-17,1681.49,259.99,43.1486,2.5661
2023-08-18,1661.59,58.38,44.7779,2.6949
2023-08-19,1669.67,42.41,46.9857,2.8141
2023-08-20,1685.24,32.72,48.4143,2.8728
2023-08-21,1667.55,39.19,47.9993,2.8784
2023-08-22,1634.99,89.38,50.7993,3.107
2023-08-23,1679.61,73.06,54.1814,3.2258
2023-08-24,1661.16,48.09,56.1471,3.38
2023-08-25,1653.8,41.71,57.7543,3.4922
2023-08-26,1647.04,11.59,58.0157,3.5224
2023-08-27,1658.33,13.92,57.0464,3.44
2023-08-28,1653.08,42.59,58.5529,3.542
2023-08-29,1729.42,105.84,63.73,3.6851
2023-08-30,1705.23,36.59,63.9614,3.7509
2023-08-31,1645.76,99.0,52.4621,3.1877
2023-09-01,1629.12,52.2,52.0207,3.1932
2023-09-02,1637.03,16.97,50.2036,3.0667
2023-09-03,1635.84,22.36,49.4636,3.0237
2023-09-04,1630.51,28.5,48.7,2.9868
2023-09-05,1634.45,38.33,45.0536,2.7565
2023-09-06,1633.15,60.8,44.1779,2.7051
2023-09-07,1648.11,36.6,43.3571,2.6307
2023-09-08,1636.44,42.72,43.4293,2.6539
2023-09-09,1635.54,7.78,43.1571,2.6387
2023-09-10,1617.42,35.7,44.7129,2.7645
2023-09-11,1551.85,87.99,47.9557,3.0902
2023-09-12,1592.97,76.33,45.8479,2.8781
2023-09-13,1607.62,37.42,45.9071,2.8556
2023-09-14,1626.47,37.24,41.4957,2.5513
2023-09-15,1641.29,42.66,40.8143,2.4867
2023-09-16,1634.4,21.86,41.1636,2.5186
2023-09-17,1622.48,23.0,41.2093,2.5399
2023-09-18,1636.66,65.62,43.8607,2.6799
2023-09-19,1643.12,34.72,43.6029,2.6537
2023-09-20,1622.26,44.83,42.4621,2.6175
2023-09-21,1583.94,57.53,43.9571,2.7752
2023-09-22,1593.08,26.1,42.77,2.6847
2023-09-23,1593.86,10.79,42.985,2.6969
2023-09-24,1580.71,31.11,42.6571,2.6986
2023-09-25,1588.33,34.49,38.8357,2.4451
2023-09-26,1594.01,19.73,34.7929,2.1827
2023-09-27,1598.64,50.6,35.7343,2.2353
2023-09-28,1652.99,70.07,38.0793,2.3037
2023-09-29,1667.45,39.63,37.8629,2.2707
2023-09-30,1670.89,28.13,38.3107,2.2928
2023-10-01,1733.79,83.0,42.5964,2.4568
2023-10-02,1662.4,107.21,45.5671,2.741
2023-10-03,1656.88,27.65,45.0621,2.7197
2023-10-04,1646.58,32.66,44.1929,2.6839
2023-10-05,1611.79,48.74,43.565,2.7029
2023-10-06,1645.03,50.32,45.295,2.7534
2023-10-07,1633.57,17.68,45.7871,2.8029
2023-10-08,1632.84,25.23,45.3671,2.7784
2023-10-09,1580.13,90.0,49.3321,3.122
2023-10-10,1567.63,44.35,51.0907,3.2591
2023-10-11,1566.87,34.17,49.9171,3.1858
2023-10-12,1539.61,47.56,48.3093,3.1378
2023-10-13,1552.16,37.6,48.1643,3.103
2023-10-14,1554.94,17.17,47.3814,3.0472
2023-10-15,1557.77,20.18,42.8943,2.7536
2023-10-16,1599.42,84.37,41.2629,2.5799
2023-10-17,1565.01,49.45,42.82,2.7361
2023-10-18,1563.44,29.54,42.5971,2.7246
2023-10-19,1566.57,32.84,41.4614,2.6466
2023-10-20,1603.89,69.21,42.8107,2.6692
2023-10-21,1628.94,52.17,45.2743,2.7794
2023-10-22,1663.7,46.7,46.8079,2.8135
2023-10-23,1765.46,142.93,50.5886,2.8655
2023-10-24,1784.98,98.17,54.4329,3.0495
2023-10-25,1787.15,57.69,56.1129,3.1398
2023-10-26,1803.38,103.33,60.0964,3.3324
2023-10-27,1779.4,59.25,61.6429,3.4642
2023-10-28,1776.2,33.23,62.79,3.5351
2023-10-29,1795.14,48.64,64.8229,3.611
2023-10-30,1809.04,52.07,62.5157,3.4557
2023-10-31,1814.67,38.42,61.7279,3.4016
2023-11-01,1846.99,74.47,64.9371,3.5158
2023-11-02,1800.8,89.99,69.0193,3.8327
2023-11-03,1832.71,57.47,68.1807,3.7202
2023-11-04,1855.54,45.87,67.7307,3.6502
2023-11-05,1891.71,66.56,69.1493,3.6554
2023-11-06,1900.95,45.75,62.2079,3.2725
2023-11-07,1885.27,56.67,59.2436,3.1424
2023-11-08,1888.12,32.18,57.4214,3.0412
2023-11-09,2121.32,249.93,67.8929,3.2005
2023-11-10,2077.72,72.38,68.8307,3.3128
2023-11-11,2053.17,59.3,70.6929,3.4431
2023-11-12,2044.68,54.4,71.1043,3.4775
2023-11-13,2053.65,89.51,73.7786,3.5926
2023-11-14,1979.39,128.36,80.2029,4.0519
2023-11-15,2058.48,95.39,81.6971,3.9688
2023-11-16,1961.77,151.3,86.0764,4.3877
2023-11-17,1960.82,87.5,88.2214,4.4992
2023-11-18,1962.6,55.22,88.8893,4.5292
2023-11-19,2011.47,72.86,89.3393,4.4415
2023-11-20,2021.4,76.4,91.5286,4.528
2023-11-21,1933.01,103.17,94.85,4.9069
2023-11-22,2063.21,164.05,104.2693,5.0537
2023-11-23,2062.2,48.59,89.8879,4.3588
2023-11-24,2080.84,73.65,89.9786,4.3241
2023-11-25,2083.09,25.24,87.5457,4.2027
2023-11-26,2062.33,58.57,87.8436,4.2594
2023-11-27,2027.5,85.46,87.5543,4.3183
2023-11-28,2048.14,79.85,84.0893,4.1056
2023-11-29,2028.81,56.39,81.3036,4.0075
2023-11-30,2051.96,33.9,72.9179,3.5536
2023-12-01,2087.24,65.83,71.37,3.4193
2023-12-02,2164.74,100.35,74.5936,3.4458
2023-12-03,2192.95,68.27,74.2657,3.3866
2023-12-04,2243.37,83.28,74.7571,3.3324
2023-12-05,2293.33,121.39,76.0586,3.3165
2023-12-06,2232.7,92.23,70.9286,3.1768
2023-12-07,2355.73,160.8,78.9436,3.3511
2023-12-08,2358.72,55.66,77.6586,3.2924
2023-12-09,2340.49,74.99,81.2121,3.4699
2023-12-10,2352.39,57.47,81.1336,3.449
2023-12-11,2225.12,198.38,89.1993,4.0087
2023-12-12,2203.46,78.12,89.0757,4.0425
2023-12-13,2260.16,139.7,95.0264,4.2044
2023-12-14,2315.32,103.91,100.0271,4.3202
2023-12-15,2220.5,117.81,103.74,4.6719
2023-12-16,2228.96,53.4,100.3864,4.5037
2023-12-17,2196.52,57.18,99.5943,4.5342
2023-12-18,2219.43,107.4,101.3171,4.565
2023-12-19,2177.91,119.45,101.1786,4.6457
2023-12-20,2202.17,110.0,102.4479,4.6521
2023-12-21,2239.61,96.33,97.8429,4.3687
2023-12-22,2324.54,112.56,101.9071,4.384
2023-12-23,2308.2,65.65,101.24,4.3861
2023-12-24,2264.05,81.19,102.9343,4.5465
2023-12-25,2271.35,51.7,92.4571,4.0706
2023-12-26,2230.88,96.54,93.7729,4.2034
2023-12-27,2378.35,180.56,96.6914,4.0655
2023-12-28,2344.15,110.8,97.1836,4.1458
2023-12-29,2299.2,130.07,98.0593,4.2649
2023-12-30,2291.68,54.84,98.1621,4.2834
2023-12-31,2281.87,62.46,98.5393,4.3184
2024-01-01,2352.04,87.13,97.0914,4.128
2024-01-02,2355.34,90.3,95.0093,4.0338
2024-01-03,2209.72,285.45,107.5414,4.8667
2024-01-04,2267.11,92.78,107.2879,4.7324
2024-01-05,2268.78,71.04,104.3221,4.5982
2024-01-06,2240.78,53.6,103.4614,4.6172
2024-01-07,2221.42,54.55,101.5586,4.5718
2024-01-08,2330.44,191.82,111.5671,4.7874
2024-01-09,2344.29,144.94,115.0243,4.9066
2024-01-10,2584.38,303.51,123.8064,4.7906
2024-01-11,2618.01,123.38,124.705,4.7634
2024-01-12,2522.54,259.32,133.9371,5.3096
2024-01-13,2578.19,92.5,136.6271,5.2993
2024-01-14,2472.87,108.69,139.9293,5.6586
2024-01-15,2511.78,82.9,139.6271,5.5589
2024-01-16,2587.4,114.38,141.3471,5.4629
2024-01-17,2530.19,86.22,127.1164,5.024
2024-01-18,2470.81,121.44,129.1636,5.2276
2024-01-19,2492.0,89.0,130.4464,5.2346
2024-01-20,2472.01,37.8,129.3179,5.2313
2024-01-21,2457.05,30.05,127.5679,5.1919
2024-01-22,2314.2,162.51,125.4743,5.4219
2024-01-23,2242.6,184.16,128.2757,5.72
2024-01-24,2235.02,68.48,111.4879,4.9882
2024-01-25,2218.64,71.59,107.7886,4.8583
2024-01-26,2267.68,86.52,95.4457,4.209
2024-01-27,2267.94,31.54,91.0914,4.0165
2024-01-28,2256.9,68.35,88.21,3.9085
2024-01-29,2317.6,88.54,88.6129,3.8235
2024-01-30,2343.01,94.98,87.2271,3.7229
2024-01-31,2283.14,88.03,87.3564,3.8262
2024-02-01,2304.28,71.72,83.805,3.6369
2024-02-02,2309.06,42.8,80.505,3.4865
2024-02-03,2296.49,37.23,80.4643,3.5038
2024-02-04,2289.79,45.0,81.5321,3.5607
2024-02-05,2301.83,69.3,74.8743,3.2528
2024-02-06,2372.64,93.4,68.3914,2.8825
2024-02-07,2425.1,90.44,69.96,2.8848
2024-02-08,2419.55,52.14,68.5707,2.834
2024-02-09,2486.56,105.84,69.9507,2.8132
2024-02-10,2500.24,44.88,70.9036,2.8359
2024-02-11,2507.21,46.18,69.32,2.7648
2024-02-12,2659.99,193.58,76.8229,2.8881
2024-02-13,2639.99,96.12,76.9043,2.9131
2024-02-14,2774.81,167.6,82.5879,2.9763
2024-02-15,2822.59,108.4,85.2079,3.0188
2024-02-16,2801.8,117.4,90.5364,3.2314
2024-02-17,2785.93,85.2,93.9629,3.3728
2024-02-18,2881.2,130.75,100.0879,3.4738
2024-02-19,2944.8,127.59,104.2514,3.5402
2024-02-20,3014.81,158.53,108.9036,3.6123
2024-02-21,2967.9,149.15,113.0971,3.8107
2024-02-22,2971.4,129.51,118.6236,3.9922
2024-02-23,2922.24,87.75,117.3314,4.0151
2024-02-24,2992.62,101.08,121.3457,4.0548
2024-02-25,3112.59,138.39,127.9321,4.1102
2024-02-26,3175.94,159.41,125.4914,3.9513
2024-02-27,3242.36,128.12,127.7771,3.9409
2024-02-28,3383.1,311.84,138.08,4.0815
2024-02-29,3340.09,222.81,146.2521,4.3787
2024-03-01,3433.43,111.46,145.8279,4.2473
2024-03-02,3421.4,70.03,144.7443,4.2306
2024-03-03,3487.81,131.8,144.8193,4.1522
2024-03-04,3627.76,217.16,151.2171,4.1683
2024-03-05,3553.65,622.04,184.325,5.1869
2024-03-06,3818.59,400.6,202.2857,5.2974
2024-03-07,3868.76,198.81,207.2357,5.3566
2024-03-08,3883.36,173.75,213.3786,5.4947
2024-03-09,3905.21,71.99,211.3007,5.4107
2024-03-10,3878.47,173.41,213.8021,5.5125
2024-03-11,4064.8,363.28,228.3643,5.6181
2024-03-12,3979.96,264.94,238.1371,5.9834
2024-03-13,4004.79,150.77,226.6321,5.659
2024-03-14,3881.7,287.98,231.2871,5.9584
2024-03-15,3742.19,364.02,249.3271,6.6626
2024-03-16,3523.09,312.32,266.6336,7.5682
2024-03-17,3644.71,266.68,276.2679,7.58
2024-03-18,3520.46,190.93,274.3943,7.7943
2024-03-19,3158.64,397.21,258.335,8.1787
2024-03-20,3516.53,478.68,263.9121,7.5049
2024-03-21,3492.85,175.32,262.2343,7.5077
2024-03-22,3336.35,292.52,270.7179,8.1142
2024-03-23,3329.53,165.4,277.39,8.3312
2024-03-24,3454.98,172.46,277.3221,8.0267
2024-03-25,3590.42,245.88,268.9364,7.4904
2024-03-26,3587.33,136.24,259.7436,7.2406
2024-03-27,3501.19,205.82,263.6757,7.531
2024-03-28,3560.49,146.78,253.59,7.1223
2024-03-29,3509.74,138.46,237.4786,6.7663
2024-03-30,3505.64,80.81,220.9421,6.3025
2024-03-31,3645.29,150.23,212.6243,5.8328
2024-04-01,3503.8,232.24,215.575,6.1526
2024-04-02,3278.96,293.6,208.1743,6.3488
2024-04-03,3310.83,164.61,185.7407,5.6101
2024-04-04,3327.4,193.01,187.0043,5.6201
2024-04-05,3317.85,140.0,176.11,5.308
2024-04-06,3351.59,91.74,170.8486,5.0975
2024-04-07,3454.2,115.86,166.8057,4.8291
2024-04-08,3694.61,324.35,172.4107,4.6665
2024-04-09,3506.39,276.88,182.4564,5.2035
2024-04-10,3545.64,151.13,178.55,5.0358
2024-04-11,3502.52,143.78,178.3357,5.0916
2024-04-12,3237.43,452.4,200.76,6.2012
2024-04-13,3007.01,449.9,227.1236,7.5531
2024-04-14,3155.11,267.5,235.5,7.4641
2024-04-15,3101.99,254.66,237.1014,7.6435
2024-04-16,3084.22,142.01,226.2736,7.3365
2024-04-17,2985.41,209.28,229.4643,7.6862
2024-04-18,3064.4,143.42,225.9221,7.3725
2024-04-19,3056.46,263.71,234.7586,7.6807
2024-04-20,3155.79,153.13,239.1436,7.5779
2024-04-21,3147.67,80.69,236.6314,7.5177
2024-04-22,3200.2,105.85,221.0243,6.9066
2024-04-23,3219.46,111.61,209.2193,6.4986
2024-04-24,3140.8,188.66,211.9,6.7467
2024-04-25,3155.8,119.44,210.1614,6.6595
2024-04-26,3131.3,65.7,182.54,5.8295
2024-04-27,3255.56,218.26,165.9943,5.0988
2024-04-28,3263.45,106.95,154.5264,4.7351
2024-04-29,3216.73,171.82,148.6093,4.6199
2024-04-30,3014.05,329.95,162.0336,5.3759
2024-05-01,2972.46,206.24,161.8164,5.4439
2024-05-02,2986.19,123.46,160.3907,5.3711
2024-05-03,3102.61,168.67,153.6021,4.9507
2024-05-04,3117.23,75.15,148.0321,4.7488
2024-05-05,3136.41,98.94,149.3357,4.7614
2024-05-06,3062.6,175.05,154.2786,5.0375
2024-05-07,3005.69,131.85,155.7243,5.181
2024-05-08,2974.21,101.67,149.5107,5.0269
2024-05-09,3036.23,108.23,148.71,4.8979
2024-05-10,2909.99,175.86,156.5786,5.3807
2024-05-11,2912.45,59.21,145.2179,4.9861
2024-05-12,2929.29,54.03,141.4379,4.8284
2024-05-13,2950.99,131.64,138.5679,4.6956
2024-05-14,2881.93,98.6,122.0429,4.2348
2024-05-15,3032.55,177.61,119.9979,3.957
2024-05-16,2944.7,118.44,119.6393,4.0629
2024-05-17,3092.01,186.94,120.9443,3.9115
2024-05-18,3122.94,63.37,120.1029,3.8458
2024-05-19,3071.19,83.26,118.9829,3.8742
2024-05-20,3661.78,646.33,152.6457,4.1686
2024-05-21,3789.6,217.26,158.7464,4.189
2024-05-22,3737.73,160.54,162.9514,4.3596
2024-05-23,3783.61,451.29,187.4557,4.9544
2024-05-24,3728.28,203.51,189.4307,5.0809
2024-05-25,3749.26,70.4,190.23,5.0738
2024-05-26,3826.47,153.03,197.3014,5.1562
2024-05-27,3894.22,153.63,198.8721,5.1069
2024-05-28,3844.69,157.19,203.0571,5.2815
2024-05-29,3767.43,145.96,200.7964,5.3298
2024-05-30,3747.91,122.77,201.1057,5.3658
2024-05-31,3762.29,126.19,196.7664,5.23
2024-06-01,3815.82,80.63,197.9993,5.1889
2024-06-02,3780.91,85.97,198.1929,5.2419
2024-06-03,3767.06,91.56,158.5664,4.2093
2024-06-04,3810.23,101.65,150.3086,3.9449
2024-06-05,3865.99,110.14,146.7086,3.7949
2024-06-06,3813.46,118.6,122.945,3.224
2024-06-07,3678.32,241.39,125.6507,3.416
2024-06-08,3681.57,49.42,124.1521,3.3723
2024-06-09,3706.4,55.16,117.1614,3.1611
2024-06-10,3667.85,70.93,111.2543,3.0332
2024-06-11,3497.33,241.0,117.2407,3.3523
2024-06-12,3560.12,196.94,120.8821,3.3955
2024-06-13,3469.4,133.65,121.6593,3.5066
2024-06-14,3481.8,170.35,124.8136,3.5847
2024-06-15,3568.74,121.29,127.7179,3.5788
2024-06-16,3624.41,112.74,129.63,3.5766
2024-06-17,3511.46,174.98,135.5886,3.8613
2024-06-18,3483.42,162.2,139.9136,4.0166
2024-06-19,3560.51,124.36,140.9293,3.9581
2024-06-20,3513.08,139.96,142.455,4.055
2024-06-21,3518.5,100.73,132.4079,3.7632
2024-06-22,3495.75,46.1,132.1707,3.7809
2024-06-23,3420.91,115.07,136.45,3.9887
2024-06-24,3352.73,195.76,145.3664,4.3358
2024-06-25,3394.91,94.12,134.875,3.9729
2024-06-26,3371.44,101.74,128.075,3.7988
2024-06-27,3450.44,115.26,126.7614,3.6738
2024-06-28,3380.15,122.48,123.3421,3.649
2024-06-29,3378.8,36.46,117.2829,3.4711
2024-06-30,3438.16,107.34,116.8971,3.4
2024-07-01,3442.2,101.16,111.6243,3.2428
2024-07-02,3421.35,62.12,104.4757,3.0536
2024-07-03,3295.48,181.1,108.5286,3.2933
2024-07-04,3059.7,263.11,117.325,3.8345
2024-07-05,2981.78,300.0,131.5586,4.4121
2024-07-06,3066.83,126.72,137.3171,4.4775
2024-07-07,2931.0,150.84,139.8721,4.7722
2024-07-08,3019.01,274.26,145.4793,4.8188
2024-07-09,3066.65,111.2,146.6993,4.7837
2024-07-10,3101.05,127.51,148.54,4.79
2024-07-11,3099.57,162.48,151.9129,4.9011
2024-07-12,3133.88,112.31,151.1864,4.8243
2024-07-13,3175.93,88.43,154.8986,4.8773
2024-07-14,3245.08,105.05,154.735,4.7683
2024-07-15,3483.39,260.41,166.11,4.7686
2024-07-16,3444.13,152.04,172.5329,5.0095
2024-07-17,3387.05,141.0,169.6686,5.0093
2024-07-18,3426.5,122.78,159.645,4.6591
2024-07-19,3503.53,163.27,149.8786,4.2779
2024-07-20,3517.5,59.65,145.0879,4.1247
2024-07-21,3535.92,135.6,143.9993,4.0725
2024-07-22,3439.6,140.48,134.4436,3.9087
2024-07-23,3482.51,152.0,137.3579,3.9442
2024-07-24,3335.81,187.82,141.6657,4.2468
2024-07-25,3175.48,254.97,148.2721,4.6693
2024-07-26,3274.61,115.36,148.49,4.5346
2024-07-27,3249.01,136.58,151.9293,4.6762
2024-07-28,3270.16,86.19,150.5821,4.6047
2024-07-29,3317.66,138.77,141.8936,4.2769
2024-07-30,3279.21,133.22,140.5493,4.2861
2024-07-31,3232.74,136.25,140.21,4.3372
2024-08-01,3203.4,162.55,143.0507,4.4656
2024-08-02,2989.61,251.6,149.36,4.996
2024-08-03,2903.64,159.02,156.4579,5.3883
2024-08-04,2688.92,305.46,168.5907,6.2698
2024-08-05,2419.59,586.44,200.445,8.2843
2024-08-06,2461.33,142.04,199.7336,8.1149
2024-08-07,2342.8,242.28,203.6236,8.6915
2024-08-08,2682.5,403.7,214.2471,7.9868
2024-08-09,2598.78,155.37,217.105,8.3541
2024-08-10,2609.92,68.21,212.2214,8.1313
2024-08-11,2555.38,180.0,218.9221,8.5671
2024-08-12,2722.3,239.95,226.1493,8.3073
2024-08-13,2702.44,127.03,225.7071,8.352
2024-08-14,2661.45,147.8,226.5321,8.5116
2024-08-15,2569.89,159.89,226.3421,8.8075
2024-08-16,2592.73,80.93,214.1514,8.2597
2024-08-17,2614.51,42.19,205.8064,7.8717
2024-08-18,2612.15,94.63,190.7471,7.3023
2024-08-19,2636.36,84.5,154.8943,5.8753
2024-08-20,2572.82,140.0,154.7486,6.0147
2024-08-21,2630.71,127.52,146.5514,5.5708
2024-08-22,2622.88,60.49,122.0364,4.6528
2024-08-23,2762.48,177.73,123.6336,4.4755
2024-08-24,2768.0,88.74,125.1,4.5195
2024-08-25,2746.13,59.07,116.4621,4.241
2024-08-26,2680.49,95.34,106.1329,3.9595
2024-08-27,2457.33,307.02,118.9893,4.8422
2024-08-28,2528.33,135.8,118.1321,4.6723
2024-08-29,2527.61,89.52,113.1057,4.4748
2024-08-30,2526.0,121.03,115.97,4.5911
2024-08-31,2513.01,42.03,115.9586,4.6143
2024-09-01,2425.72,116.28,117.505,4.8441
2024-09-02,2538.01,141.31,121.5629,4.7897
2024-09-03,2425.29,142.48,121.74,5.0196
2024-09-04,2450.71,183.35,125.7279,5.1303
2024-09-05,2368.81,117.96,129.8329,5.4809
2024-09-06,2225.23,258.28,135.5864,6.0931
2024-09-07,2273.58,90.29,135.6971,5.9684
2024-09-08,2297.3,92.64,138.095,6.0112
2024-09-09,2359.5,108.61,139.0429,5.8929
2024-09-10,2388.52,79.59,122.7979,5.1412
2024-09-11,2340.55,111.64,121.0721,5.1728
2024-09-12,2361.76,76.54,120.145,5.0871
2024-09-13,2439.19,127.47,120.605,4.9445
2024-09-14,2417.79,63.88,122.1657,5.0528
2024-09-15,2316.1,146.57,124.3293,5.368
2024-09-16,2295.68,83.31,120.1864,5.2353
2024-09-17,2341.8,130.34,119.3193,5.0952
2024-09-18,2374.75,98.8,113.28,4.7702
2024-09-19,2465.21,122.35,113.5936,4.6079
2024-09-20,2561.4,134.62,104.7607,4.09
2024-09-21,2612.4,94.37,105.0521,4.0213
2024-09-22,2581.0,107.99,106.1486,4.1127
2024-09-23,2646.97,163.33,110.0571,4.1579
2024-09-24,2653.2,79.4,110.0436,4.1476
2024-09-25,2579.95,119.45,110.6014,4.287
2024-09-26,2632.26,107.02,112.7786,4.2845
2024-09-27,2694.43,113.39,111.7729,4.1483
2024-09-28,2675.21,54.35,111.0921,4.1527
2024-09-29,2657.62,53.97,104.4779,3.9313
2024-09-30,2602.23,88.5,104.8486,4.0292
2024-10-01,2447.79,245.0,113.0386,4.618
2024-10-02,2364.1,147.0,116.4814,4.9271
2024-10-03,2349.8,93.38,114.4121,4.869
2024-10-04,2414.41,102.49,112.1171,4.6437
2024-10-05,2414.66,38.18,108.1036,4.477
2024-10-06,2440.03,50.8,104.0186,4.263
2024-10-07,2422.71,118.0,100.7807,4.1598
2024-10-08,2440.89,65.48,99.7864,4.0881
2024-10-09,2370.47,122.19,99.9821,4.2178
2024-10-10,2386.49,90.7,98.8164,4.1407
2024-10-11,2439.5,89.59,97.1164,3.981
2024-10-12,2476.4,56.16,97.2457,3.9269
2024-10-13,2468.91,48.52,96.8564,3.923
2024-10-14,2629.79,210.61,105.5786,4.0147
2024-10-15,2607.41,151.24,98.8814,3.7923
2024-10-16,2611.1,59.12,92.6043,3.5466
2024-10-17,2605.8,72.97,91.1464,3.4978
2024-10-18,2642.17,79.09,89.475,3.3864
2024-10-19,2648.2,32.47,89.0671,3.3633
2024-10-20,2746.91,123.46,94.2571,3.4314
2024-10-21,2666.7,114.47,94.005,3.5251
2024-10-22,2622.81,65.36,93.9964,3.5838
2024-10-23,2524.61,178.2,97.9971,3.8817
2024-10-24,2535.82,55.34,95.4714,3.7649
2024-10-25,2440.62,183.74,102.1964,4.1873
2024-10-26,2482.51,77.88,103.7479,4.1792
2024-10-27,2507.8,63.86,104.8436,4.1807
2024-10-28,2567.48,118.0,98.2286,3.8259
2024-10-29,2638.8,120.66,96.0443,3.6397
2024-10-30,2659.19,122.64,100.5814,3.7824
2024-10-31,2518.61,166.0,107.2264,4.2574
2024-11-01,2511.49,119.13,110.0864,4.3833
2024-11-02,2494.23,53.45,111.585,4.4737
2024-11-03,2457.73,85.39,108.8657,4.4295
2024-11-04,2398.21,133.8,110.2464,4.597
2024-11-05,2422.55,99.26,112.6679,4.6508
2024-11-06,2721.87,324.4,123.1107,4.523
2024-11-07,2895.47,216.62,134.6307,4.6497
2024-11-08,2961.75,95.29,128.3129,4.3323
2024-11-09,3126.21,203.69,137.2993,4.3919
2024-11-10,3183.21,179.52,145.5607,4.5728
2024-11-11,3371.59,282.61,157.3186,4.666
2024-11-12,3243.8,234.83,165.4736,5.1012
2024-11-13,3187.16,214.31,172.0214,5.3973
2024-11-14,3058.82,211.84,175.2957,5.7308
2024-11-15,3090.01,116.56,175.1121,5.667
2024-11-16,3132.87,147.97,181.8636,5.805
2024-11-17,3076.0,127.12,184.8443,6.0092
2024-11-18,3207.8,174.93,187.7821,5.8539
2024-11-19,3107.44,155.8,191.8207,6.1729
2024-11-20,3069.97,129.79,177.92,5.7955
2024-11-21,3355.81,354.14,187.7429,5.5946
2024-11-22,3327.78,168.38,192.9636,5.7986
2024-11-23,3393.91,184.79,191.6136,5.6458
2024-11-24,3361.2,168.6,190.8336,5.6775
2024-11-25,3414.49,246.65,188.265,5.5137
2024-11-26,3324.73,210.49,186.5264,5.6103
2024-11-27,3653.28,382.52,198.5414,5.4346
2024-11-28,3578.79,132.16,192.85,5.3887
2024-11-29,3592.21,113.7,192.6457,5.3629
2024-11-30,3703.6,170.58,194.2607,5.2452
2024-12-01,3707.61,87.6,191.4379,5.1634
2024-12-02,3643.42,205.68,193.6343,5.3146
2024-12-03,3614.51,170.0,194.6486,5.3852
2024-12-04,3837.8,272.73,204.8586,5.3379
2024-12-05,3785.2,279.0,199.4914,5.2703
2024-12-06,3998.87,310.47,209.6407,5.2425
2024-12-07,3996.22,56.46,200.4743,5.0166
2024-12-08,4004.15,92.08,195.0086,4.8702
2024-12-09,3712.0,497.17,212.9029,5.7355
2024-12-10,3628.25,264.87,216.7871,5.975
2024-12-11,3831.81,286.3,209.9143,5.4782
2024-12-12,3881.61,190.61,214.0893,5.5155
2024-12-13,3906.8,115.53,214.22,5.4833
2024-12-14,3870.29,119.97,210.605,5.4416
2024-12-15,3959.09,143.11,214.57,5.4197
2024-12-16,3986.24,223.8,215.8643,5.4152
2024-12-17,3893.01,193.86,217.5686,5.5887
2024-12-18,3626.8,289.77,218.7857,6.0325
2024-12-19,3417.01,393.2,226.9429,6.6416
2024-12-20,3472.21,395.94,233.0479,6.7118
2024-12-21,3338.92,262.07,247.7343,7.4196
2024-12-22,3281.83,181.9,254.15,7.7442
2024-12-23,3422.53,250.02,236.4964,6.91
2024-12-24,3493.18,181.46,230.5386,6.5997
2024-12-25,3497.0,107.02,217.7329,6.2263
2024-12-26,3335.05,210.31,219.14,6.5708
2024-12-27,3333.51,137.56,220.7136,6.6211
2024-12-28,3404.0,106.45,219.7479,6.4556
2024-12-29,3356.48,87.61,215.7836,6.4289
2024-12-30,3361.84,132.59,209.2686,6.2248
2024-12-31,3337.78,135.41,205.0936,6.1446
2025-01-01,3360.38,60.97,188.7507,5.6169
2025-01-02,3455.67,155.49,171.7714,4.9707
2025-01-03,3609.01,206.56,158.2443,4.3847
2025-01-04,3656.88,99.18,146.6093,4.0091
2025-01-05,3635.99,81.55,139.4414,3.835
2025-01-06,3687.45,134.2,131.1686,3.5572
2025-01-07,3381.31,344.55,142.8179,4.2237
2025-01-08,3327.29,206.9,149.9521,4.5067
2025-01-09,3219.2,199.27,149.1636,4.6336
2025-01-10,3267.04,128.52,148.5179,4.5459
2025-01-11,3282.83,102.62,148.2443,4.5157
2025-01-12,3267.3,75.51,147.38,4.5108
2025-01-13,3137.51,419.0,167.8379,5.3494
2025-01-14,3225.63,131.02,167.5243,5.1935
2025-01-15,3451.52,287.39,183.6971,5.3222
2025-01-16,3308.05,195.35,186.5443,5.6391
2025-01-17,3473.63,218.22,187.3771,5.3943
2025-01-18,3307.71,267.39,199.3921,6.0281
2025-01-19,3215.12,318.51,216.3179,6.7281
2025-01-20,3284.0,310.91,228.94,6.9714
2025-01-21,3327.54,163.4,216.0007,6.4913
2025-01-22,3242.6,143.14,211.4464,6.5209
2025-01-23,3338.21,162.97,208.8536,6.2565
2025-01-24,3310.09,152.1,210.5379,6.3605
2025-01-25,3318.77,82.02,209.0664,6.2995
2025-01-26,3232.61,132.0,213.1014,6.5922
2025-01-27,3182.44,233.9,199.88,6.2807
2025-01-28,3077.72,182.98,203.5914,6.615
2025-01-29,3113.9,128.46,192.2393,6.1736
2025-01-30,3247.39,192.37,192.0264,5.9133
2025-01-31,3300.99,223.51,192.4043,5.8287
2025-02-01,3117.54,230.28,189.7536,6.0866
2025-02-02,2869.68,412.49,196.4664,6.8463
2025-02-03,2879.9,795.99,231.115,8.0251
2025-02-04,2731.19,255.9,237.7221,8.704
2025-02-05,2788.25,127.82,236.6279,8.4866
2025-02-06,2686.64,202.36,239.4414,8.9123
2025-02-07,2622.1,234.99,245.3621,9.3575
2025-02-08,2632.46,78.5,245.1107,9.3111
2025-02-09,2627.18,178.88,248.4593,9.4573
2025-02-10,2661.19,133.94,241.3193,9.0681
2025-02-11,2602.59,166.8,240.1636,9.2279
2025-02-12,2738.27,248.53,248.74,9.0838
2025-02-13,2675.87,144.52,245.3221,9.1679
2025-02-14,2725.95,127.32,238.4514,8.7475
2025-02-15,2693.04,76.72,227.4829,8.4471
2025-02-16,2661.41,76.05,203.4514,7.6445
2025-02-17,2744.05,211.99,161.7371,5.8941
2025-02-18,2671.99,151.49,154.2793,5.7739
2025-02-19,2715.5,80.67,150.9114,5.5574
2025-02-20,2738.04,63.41,140.9864,5.1492
2025-02-21,2663.0,228.6,140.53,5.2771
2025-02-22,2763.22,144.74,145.2614,5.257
2025-02-23,2819.69,111.93,140.4793,4.9821
2025-02-24,2513.52,369.62,157.3136,6.2587
2025-02-25,2495.7,220.0,161.1136,6.4556
2025-02-26,2336.37,253.73,161.485,6.9118
2025-02-27,2307.72,151.03,161.95,7.0177
2025-02-28,2237.59,237.92,169.85,7.5908
2025-03-01,2217.39,138.41,174.2564,7.8586
2025-03-02,2518.11,378.54,195.8629,7.7782
2025-03-03,2149.01,425.65,211.1243,9.8243
2025-03-04,2171.51,228.68,216.6379,9.9764
2025-03-05,2241.59,118.48,219.3386,9.785
2025-03-06,2202.2,143.09,225.03,10.2184
2025-03-07,2141.6,156.65,219.8907,10.2676
2025-03-08,2203.58,129.87,218.8286,9.9306
2025-03-09,2020.41,222.34,226.715,11.2212
2025-03-10,1865.1,342.39,224.77,12.0514
2025-03-11,1923.43,208.92,223.9786,11.6447
2025-03-12,1908.2,130.28,215.1607,11.2756
2025-03-13,1864.59,101.28,211.6071,11.3487
2025-03-14,1911.65,84.33,200.6364,10.4955
2025-03-15,1937.17,53.44,194.5671,10.0439
2025-03-16,1887.0,80.49,173.2779,9.1827
2025-03-17,1926.31,72.42,148.0471,7.6855
2025-03-18,1931.54,63.89,136.2764,7.0553
2025-03-19,2056.06,142.32,137.9793,6.7109
2025-03-20,1983.79,115.73,136.025,6.8568
2025-03-21,1965.75,59.63,129.095,6.5672
2025-03-22,1980.69,42.27,122.8379,6.2018
2025-03-23,2005.99,43.93,110.0943,5.4883
2025-03-24,2081.2,126.44,94.6693,4.5488
2025-03-25,2066.15,60.62,84.0764,4.0692
2025-03-26,2009.52,97.61,81.7429,4.0678
2025-03-27,2003.66,50.32,78.1029,3.898
2025-03-28,1896.9,155.93,83.2171,4.387
2025-03-29,1828.08,116.4,87.7143,4.7982
2025-03-30,1807.74,81.32,87.7736,4.8554
2025-03-31,1822.43,77.47,88.1343,4.8361
2025-04-01,1904.98,110.02,91.4293,4.7995
2025-04-02,1795.22,175.47,93.7971,5.2248
2025-04-03,1817.23,95.26,92.335,5.0811
2025-04-04,1816.87,76.96,93.5729,5.1502
2025-04-05,1806.01,62.9,95.0464,5.2628
2025-04-06,1580.76,279.5,111.8729,7.0772
2025-04-07,1553.04,227.99,119.1264,7.6705
2025-04-08,1473.41,177.37,127.4657,8.6511
2025-04-09,1669.51,303.95,142.2043,8.5177
2025-04-10,1522.25,198.83,152.8121,10.0386
2025-04-11,1566.85,86.84,147.8771,9.4379
2025-04-12,1644.18,123.53,148.3864,9.025
2025-04-13,1597.76,87.74,148.845,9.3159
2025-04-14,1623.77,95.94,150.1643,9.2479
2025-04-15,1588.78,78.09,147.8836,9.308
2025-04-16,1577.14,75.59,140.7493,8.9243
2025-04-17,1583.62,53.76,137.785,8.7006
2025-04-18,1588.6,27.1,134.2236,8.4492
2025-04-19,1613.27,46.8,133.0736,8.2487
2025-04-20,1587.36,53.6,116.9379,7.3668
2025-04-21,1579.57,94.68,107.4157,6.8003
2025-04-22,1756.26,240.74,111.9421,6.3739
2025-04-23,1795.07,89.91,96.6536,5.3844
2025-04-24,1769.65,79.92,88.16,4.9818
2025-04-25,1784.6,88.72,88.2943,4.9476
2025-04-26,1820.88,62.22,83.915,4.6085
2025-04-27,1791.29,75.57,83.0457,4.6361
2025-04-28,1799.88,83.27,82.1407,4.5637
2025-04-29,1797.81,62.52,81.0286,4.5071
2025-04-30,1793.61,85.1,81.7079,4.5555
2025-05-01,1838.11,80.65,83.6286,4.5497
2025-05-02,1842.2,58.0,85.8357,4.6594
2025-05-03,1833.52,38.6,85.25,4.6495
2025-05-04,1808.86,46.95,84.775,4.6867
2025-05-05,1820.19,51.7,81.705,4.4888
2025-05-06,1817.0,68.9,69.4307,3.8212
2025-05-07,1811.11,62.99,67.5079,3.7274
2025-05-08,2207.39,417.29,91.6057,4.15
2025-05-09,2345.04,306.44,107.1571,4.5695
2025-05-10,2583.23,283.0,122.9271,4.7587
2025-05-11,2514.57,172.62,129.8593,5.1643
2025-05-12,2495.47,217.37,139.4379,5.5876
2025-05-13,2679.71,323.2,158.0579,5.8983
2025-05-14,2609.74,178.73,164.7457,6.3127
2025-05-15,2548.69,171.0,171.1993,6.7171
2025-05-16,2537.12,119.91,175.6214,6.9221
2025-05-17,2475.08,91.74,179.4171,7.2489
2025-05-18,2497.78,264.4,194.9493,7.8049
2025-05-19,2528.14,198.98,205.4693,8.1273
2025-05-20,2524.19,146.23,210.9929,8.3588
2025-05-21,2550.99,163.75,218.19,8.5531
2025-05-22,2664.82,148.16,198.9664,7.4664
2025-05-23,2526.5,235.93,193.93,7.6758
2025-05-24,2530.4,60.77,178.0564,7.0367
2025-05-25,2551.22,91.26,172.245,6.7515
2025-05-26,2563.7,73.14,161.9429,6.3168
2025-05-27,2660.81,202.9,153.35,5.7633
2025-05-28,2681.6,80.64,146.3436,5.4573
2025-05-29,2631.39,168.95,146.1971,5.5559
2025-05-30,2531.34,141.88,147.7664,5.8375
2025-05-31,2528.06,75.01,146.5714,5.7978
2025-06-01,2539.21,79.23,133.345,5.2514
2025-06-02,2607.41,140.0,129.1321,4.9525
2025-06-03,2593.36,80.38,124.4286,4.798
2025-06-04,2607.68,96.38,119.6164,4.5871
2025-06-05,2414.01,249.2,126.8336,5.2541
2025-06-06,2476.1,149.87,120.6864,4.8741
2025-06-07,2524.63,87.36,122.5857,4.8556
2025-06-08,2509.83,58.05,120.2136,4.7897
2025-06-09,2680.13,216.26,130.4364,4.8668
2025-06-10,2816.4,171.39,128.1857,4.5514
2025-06-11,2771.61,135.47,132.1021,4.7663
2025-06-12,2642.65,168.59,132.0764,4.9979
2025-06-13,2579.19,208.47,136.8329,5.3053
2025-06-14,2530.76,90.71,137.9543,5.4511
2025-06-15,2547.61,67.51,137.1171,5.3822
2025-06-16,2544.17,165.49,138.9379,5.461
2025-06-17,2509.95,164.8,144.9679,5.7757
2025-06-18,2525.0,82.64,143.9864,5.7024
2025-06-19,2521.12,61.88,130.6064,5.1805
2025-06-20,2406.49,201.64,134.3043,5.5809
2025-06-21,2295.73,232.8,144.6929,6.3027
2025-06-22,2227.7,202.59,155.0171,6.9586
2025-06-23,2411.66,250.68,157.4757,6.5298
2025-06-24,2448.45,105.93,152.8,6.2407
2025-06-25,2418.49,79.0,148.7664,6.1512
2025-06-26,2415.96,126.6,145.7671,6.0335
2025-06-27,2423.17,81.01,136.6629,5.6398
2025-06-28,2435.62,41.99,133.1829,5.4681
2025-06-29,2500.09,113.0,136.4321,5.4571
2025-06-30,2485.47,93.3,131.2757,5.2817
2025-07-01,2405.01,114.28,127.6671,5.3084
2025-07-02,2570.41,246.28,139.3557,5.4215
2025-07-03,2591.25,79.38,140.6057,5.4262
2025-07-04,2508.04,128.93,135.4121,5.3991
2025-07-05,2516.41,41.86,121.7736,4.8392
2025-07-06,2570.35,101.5,114.5529,4.4567
2025-07-07,2542.29,78.57,102.2593,4.0223
2025-07-08,2615.25,104.62,102.1657,3.9065
2025-07-09,2768.74,205.96,111.2343,4.0175
2025-07-10,2951.29,244.5,119.6557,4.0544
2025-07-11,2958.22,126.4,122.8979,4.1545
2025-07-12,2943.28,75.93,125.3221,4.2579
2025-07-13,2972.03,83.82,123.2379,4.1466
2025-07-14,3013.62,120.19,125.1586,4.1531
2025-07-15,3137.89,211.68,132.1157,4.2103
2025-07-16,3371.35,324.0,137.6671,4.0834
2025-07-17,3476.87,212.67,147.1879,4.2333
2025-07-18,3546.92,215.16,153.3471,4.3234
2025-07-19,3592.01,101.51,157.6079,4.3877
2025-07-20,3756.69,245.43,167.8886,4.4691
2025-07-21,3762.33,158.99,173.6329,4.615
2025-07-22,3746.21,182.11,179.1679,4.7826
2025-07-23,3628.29,237.2,181.3993,4.9996
2025-07-24,3706.94,268.15,183.0886,4.9391
2025-07-25,3724.96,173.24,186.4343,5.005
2025-07-26,3741.1,95.34,187.8207,5.0205
2025-07-27,3872.1,148.82,192.4636,4.9705
2025-07-28,3799.0,187.0,197.2357,5.1918
2025-07-29,3793.79,170.4,194.2871,5.1212
2025-07-30,3810.0,156.38,182.3143,4.7852
2025-07-31,3698.39,194.34,181.005,4.8942
2025-08-01,3488.2,292.27,186.5129,5.347
2025-08-02,3393.94,169.4,191.3621,5.6383
2025-08-03,3496.74,167.51,185.7964,5.3134
2025-08-04,3720.99,246.0,192.0114,5.1602
2025-08-05,3612.0,176.24,191.5921,5.3043
2025-08-06,3683.31,134.41,184.25,5.0023
2025-08-07,3910.31,280.14,185.1064,4.7338
2025-08-08,4009.5,191.0,186.375,4.6483
2025-08-09,4260.62,319.57,202.3914,4.7503
2025-08-10,4250.57,179.53,204.585,4.8131
2025-08-11,4223.22,199.69,205.4914,4.8658
2025-08-12,4590.52,420.66,223.3671,4.8658
2025-08-13,4749.3,219.52,227.8771,4.7981
2025-08-14,4546.84,336.67,238.0436,5.2354
2025-08-15,4439.47,304.67,238.9293,5.3819
2025-08-16,4421.99,117.88,235.2493,5.32
2025-08-17,4472.33,182.02,236.2857,5.2833
2025-08-18,4312.99,256.02,237.0014,5.4951
2025-08-19,4075.59,287.66,244.96,6.0104
2025-08-20,4336.16,318.0,258.0736,5.9517
2025-08-21,4225.3,136.06,247.7821,5.8642
2025-08-22,4832.07,680.2,282.725,5.851
2025-08-23,4778.4,172.37,272.2107,5.6967
2025-08-24,4780.15,245.78,276.9429,5.7936
2025-08-25,4376.18,463.84,295.8107,6.7596
2025-08-26,4600.63,322.42,288.7936,6.2773
2025-08-27,4506.71,182.4,286.1421,6.3492
2025-08-28,4511.21,203.97,276.6636,6.1328
2025-08-29,4360.18,251.75,272.8836,6.2585
2025-08-30,4373.7,158.41,275.7786,6.3054
2025-08-31,4391.83,125.84,271.7657,6.188
2025-09-01,4314.5,281.23,273.5664,6.3406
2025-09-02,4326.5,158.93,264.3714,6.1105
2025-09-03,4450.46,207.41,256.4721,5.7628
2025-09-04,4297.55,216.72,262.2336,6.1019
2025-09-05,4307.45,233.97,230.36,5.3479
2025-09-06,4273.14,93.3,224.7121,5.2587
2025-09-07,4306.19,65.21,211.8143,4.9188
2025-09-08,4306.37,105.06,186.1871,4.3235
2025-09-09,4310.09,105.11,170.665,3.9597
2025-09-10,4349.32,168.47,169.67,3.9011
2025-09-11,4458.82,142.27,165.2629,3.7064
2025-09-12,4712.16,297.69,168.5443,3.5768
2025-09-13,4666.53,164.36,168.9693,3.6209
2025-09-14,4604.49,115.47,168.2286,3.6536
2025-09-15,4523.74,204.28,162.7321,3.5973
2025-09-16,4501.29,114.25,159.5407,3.5443
2025-09-17,4590.53,204.77,159.3521,3.4713
2025-09-18,4587.66,90.77,150.3557,3.2774
2025-09-19,4468.59,185.02,146.8593,3.2865
2025-09-20,4480.42,54.26,144.0707,3.2156
2025-09-21,4444.97,55.16,143.3529,3.2251
2025-09-22,4199.08,378.76,162.9029,3.8795
2025-09-23,4164.26,114.64,163.5836,3.9283
2025-09-24,4152.81,133.16,161.0614,3.8784
2025-09-25,3874.36,346.04,175.6164,4.5328
2025-09-26,4032.24,200.65,168.685,4.1834
2025-09-27,4018.38,66.03,161.6614,4.023
2025-09-28,4142.16,178.88,166.1907,4.0122
2025-09-29,4215.07,153.61,162.5714,3.8569
2025-09-30,4145.15,152.9,165.3321,3.9886
2025-10-01,4348.03,232.38,167.3043,3.8478
2025-10-02,4484.35,184.01,173.9643,3.8794
2025-10-03,4512.87,163.59,172.4336,3.8209
2025-10-04,4487.15,77.93,174.1243,3.8805
2025-10-05,4514.32,151.12,180.9786,4.009
2025-10-06,4684.01,247.68,171.6157,3.6639
2025-10-07,4447.7,324.57,186.6107,4.1957
2025-10-08,4525.72,147.92,187.665,4.1466
2025-10-09,4368.09,266.46,181.9807,4.1661
2025-10-10,3829.72,958.63,236.1221,6.1655
2025-10-11,3746.79,234.97,248.1893,6.6241
2025-10-12,4152.29,502.96,271.3379,6.5347
2025-10-13,4240.85,249.71,278.2021,6.5601
2025-10-14,4125.02,374.64,294.0407,7.1282
2025-10-15,3985.61,290.86,298.2179,7.4824
2025-10-16,3894.51,260.45,303.6779,7.7976
2025-10-17,3831.57,275.95,311.7036,8.1351
2025-10-18,3889.21,108.66,313.8986,8.071
2025-10-19,3982.58,203.9,317.6686,7.9765
2025-10-20,3979.22,176.57,312.5893,7.8555
2025-10-21,3873.05,269.76,308.6743,7.9698
2025-10-22,3805.53,179.27,310.9136,8.17
2025-10-23,3856.8,138.32,301.7607,7.8241
2025-10-24,3934.88,180.53,246.1821,6.2564
2025-10-25,3953.82,56.82,233.4571,5.9046
2025-10-26,4158.46,259.75,216.085,5.1963
2025-10-27,4120.15,158.72,209.5857,5.0868
2025-10-28,3979.2,244.22,200.27,5.0329
2025-10-29,3902.99,196.29,193.515,4.9581
2025-10-30,3805.09,268.74,194.1071,5.1012
2025-10-31,3847.99,109.73,182.2343,4.7358
2025-11-01,3873.77,78.39,180.0721,4.6485
2025-11-02,3906.58,79.11,171.1586,4.3813
2025-11-03,3603.83,355.47,183.9371,5.1039
2025-11-04,3287.05,597.54,207.35,6.3081
2025-11-05,3424.29,313.8,216.9593,6.3359
2025-11-06,3315.14,211.01,222.1514,6.7011
2025-11-07,3436.05,278.8,229.1707,6.6696
2025-11-08,3401.51,132.42,234.5707,6.8961
2025-11-09,3583.46,264.59,234.9164,6.5556
2025-11-10,3567.85,151.68,234.4136,6.5702
2025-11-11,3417.76,243.03,234.3286,6.8562
2025-11-12,3414.92,216.54,235.775,6.9043
2025-11-13,3231.54,411.62,245.9807,7.6119
2025-11-14,3112.4,186.71,251.4793,8.0799
2025-11-15,3167.88,119.32,254.4029,8.0307
2025-11-16,3095.29,245.0,266.2521,8.6018
2025-11-17,3031.44,263.92,259.7129,8.5673
2025-11-18,3123.66,223.39,232.9879,7.4588
2025-11-19,3025.48,251.9,228.5664,7.5547
2025-11-20,2834.22,273.6,233.0371,8.2223
2025-11-21,2765.85,263.16,231.92,8.3851
2025-11-22,2770.12,94.68,229.2243,8.2749
2025-11-23,2802.16,89.87,216.7443,7.7349
2025-11-24,2953.38,224.0,221.91,7.5138
2025-11-25,2959.36,123.5,213.3721,7.2101
2025-11-26,3026.56,156.31,209.07,6.9078
2025-11-27,3015.23,85.59,185.7821,6.1615
2025-11-28,3031.15,104.64,179.92,5.9357
2025-11-29,2989.16,90.73,177.8779,5.9508
2025-11-30,2991.26,77.72,165.9293,5.5471
2025-12-01,2799.07,283.43,167.3229,5.9778
2025-12-02,2996.07,251.57,169.3357,5.6519
2025-12-03,3188.36,229.41,167.7293,5.2607
2025-12-04,3133.26,173.98,160.6136,5.1261
2025-12-05,3021.78,210.25,156.8343,5.1901
2025-12-06,3038.06,56.42,154.1014,5.0724
2025-12-07,3059.85,242.48,165.0021,5.3925
2025-12-08,3124.16,139.64,158.9764,5.0886
2025-12-09,3318.04,307.05,172.0871,5.1864
2025-12-10,3324.14,159.34,172.3036,5.1834
2025-12-11,3237.39,182.09,179.1964,5.5352
2025-12-12,3084.86,220.19,187.45,6.0765
2025-12-13,3114.64,57.08,185.0464,5.9412
2025-12-14,3063.5,105.1,187.0021,6.1042
2025-12-15,2964.85,282.93,186.9664,6.3061
2025-12-16,2962.3,105.87,176.5593,5.9602
2025-12-17,2833.49,239.9,177.3086,6.2576
2025-12-18,2828.57,222.21,180.7536,6.3903
2025-12-19,2979.5,211.37,180.8336,6.0693
2025-12-20,2977.93,30.24,178.9636,6.0097
2025-12-21,3002.02,69.4,166.6007,5.5496
2025-12-22,3009.49,113.96,164.7664,5.4749
2025-12-23,2965.02,134.86,152.4671,5.1422
2025-12-24,2947.47,89.45,147.475,5.0034
2025-12-25,2903.95,80.26,140.2014,4.828
2025-12-26,2927.99,100.12,131.625,4.4954
2025-12-27,2949.05,43.76,130.6736,4.431
2025-12-28,2950.91,36.69,125.7871,4.2627
2025-12-29,2937.9,147.53,116.1157,3.9523
2025-12-30,2973.69,90.36,115.0079,3.8675
2025-12-31,2971.64,69.17,102.8129,3.4598
2026-01-01,3004.19,38.85,89.7157,2.9864
2026-01-02,3125.45,157.52,85.8693,2.7474
2026-01-03,3127.11,60.71,88.0457,2.8156
2026-01-04,3144.7,48.47,86.5507,2.7523
2026-01-05,3224.99,130.64,87.7421,2.7207
2026-01-06,3296.84,125.59,87.08,2.6413
2026-01-07,3168.72,171.42,92.935,2.9329
2026-01-08,3106.65,129.74,96.4693,3.1053
2026-01-09,3088.4,89.72,95.7264,3.0995
2026-01-10,3086.72,26.13,94.4671,3.0604
2026-01-11,3123.45,62.81,96.3329,3.0842
2026-01-12,3095.75,105.94,93.3621,3.0158
2026-01-13,3325.82,275.83,106.61,3.2055
2026-01-14,3354.92,122.41,110.4129,3.2911
2026-01-15,3318.69,110.47,115.5286,3.4811
2026-01-16,3296.28,73.78,109.5471,3.3234
2026-01-17,3310.56,46.3,108.5179,3.2779
2026-01-18,3284.03,89.96,111.4814,3.3947
2026-01-19,3189.55,119.2,110.6643,3.4696
2026-01-20,2939.88,280.5,121.7293,4.1406
2026-01-21,2982.27,202.96,123.9821,4.1573
2026-01-22,2952.69,132.31,124.1657,4.2052
2026-01-23,2956.41,126.86,126.8186,4.2896
2026-01-24,2953.22,26.57,126.85,4.2953
2026-01-25,2816.89,173.29,134.7414,4.7833
2026-01-26,2930.35,138.84,137.0914,4.6783
2026-01-27,3026.77,135.31,127.0543,4.1977
2026-01-28,3010.78,62.11,122.7471,4.0769
2026-01-29,2822.59,258.97,133.3543,4.7245
2026-01-30,2707.38,192.64,141.8443,5.2392
2026-01-31,2451.95,464.64,171.7257,7.0036
2026-02-01,2270.15,253.98,183.4414,8.0806
2026-02-02,2347.02,239.48,192.0329,8.182
2026-02-03,2233.72,249.88,189.8457,8.4991
2026-02-04,2148.26,219.06,190.9957,8.8907
2026-02-05,1826.83,355.59,206.9443,11.3281
2026-02-06,2063.38,346.14,222.6071,10.7885
2026-02-07,2087.08,127.13,229.79,11.0101
2026-02-08,2089.74,87.93,223.6929,10.7043
2026-02-09,2105.02,139.11,223.7121,10.6276
2026-02-10,2022.67,135.33,223.7136,11.0603
2026-02-11,1941.18,129.12,228.5,11.7712
2026-02-12,1947.85,104.18,217.4436,11.1633
2026-02-13,2048.72,148.96,214.3236,10.4613
2026-02-14,2086.59,65.3,185.7993,8.9044
2026-02-15,1966.58,174.44,180.1179,9.1589
2026-02-16,1998.33,86.27,169.1743,8.4658
2026-02-17,1991.66,73.67,156.5879,7.8622
2026-02-18,1955.91,115.27,149.1743,7.6268
2026-02-19,1949.08,80.55,129.5286,6.6456
2026-02-20,1968.88,58.21,108.9621,5.5342
2026-02-21,1973.35,39.94,102.7343,5.2061
2026-02-22,1957.82,48.13,99.8914,5.1022
2026-02-23,1856.3,121.2,98.6121,5.3123
2026-02-24,1851.94,69.58,93.9157,5.0712
2026-02-25,2057.48,301.65,106.2393,5.1636
2026-02-26,2027.68,107.98,106.5107,5.2528
2026-02-27,1929.84,176.52,108.4793,5.6212
2026-02-28,1964.51,149.63,114.5029,5.8286
2026-03-01,1939.71,147.39,112.5707,5.8035
2026-03-02,2027.35,170.0,118.5514,5.8476
2026-03-03,1982.8,111.92,121.2836,6.1168
2026-03-04,2127.28,253.92,131.1871,6.1669
2026-03-05,2072.86,108.91,133.2129,6.4265
2026-03-06,1978.68,137.38,138.8679,7.0182
2026-03-07,1969.59,47.95,139.44,7.0796
2026-03-08,1937.1,63.66,140.5493,7.2557
2026-03-09,1992.98,123.87,140.74,7.0618
2026-03-10,2036.51,97.19,142.7121,7.0077
2026-03-11,2051.97,78.41,126.7664,6.1778
2026-03-12,2073.52,77.41,124.5829,6.0083
2026-03-13,2092.22,138.91,121.8964,5.8262
2026-03-14,2096.16,44.49,114.3864,5.457
2026-03-15,2178.3,119.52,112.3957,5.1598
2026-03-16,2352.97,221.29,116.0593,4.9325
2026-03-17,2317.39,82.51,113.9586,4.9175
2026-03-18,2203.39,196.79,109.8779,4.9868
2026-03-19,2137.81,134.34,111.6943,5.2247
2026-03-20,2146.22,59.96,106.1643,4.9466
2026-03-21,2084.87,97.49,109.7029,5.2619
2026-03-22,2053.89,101.21,112.385,5.4718
2026-03-23,2152.03,175.53,116.075,5.3937
2026-03-24,2156.23,72.14,114.2857,5.3003
2026-03-25,2169.02,52.67,112.4471,5.1842
2026-03-26,2060.43,137.65,116.75,5.6663
2026-03-27,1992.75,106.26,114.4179,5.7417
2026-03-28,1994.74,64.28,115.8314,5.8068
2026-03-29,1984.64,80.83,113.0679,5.6971
2026-03-30,2026.48,104.72,104.7414,5.1686
2026-03-31,2105.43,111.39,106.8043,5.0728
2026-04-01,2140.35,85.77,98.8743,4.6195
2026-04-02,2057.17,142.33,99.445,4.8341
2026-04-03,2053.83,41.1,98.0979,4.7763
2026-04-04,2065.52,39.37,93.9464,4.5483
2026-04-05,2110.17,101.99,94.0021,4.4547
2026-04-06,2107.16,87.29,87.6993,4.162
2026-04-07,2240.01,213.63,97.8057,4.3663
2026-04-08,2190.0,90.77,100.5271,4.5903
2026-04-09,2190.2,88.69,97.03,4.4302
2026-04-10,2245.05,81.89,95.2893,4.2444
2026-04-11,2284.99,100.93,97.9071,4.2848
2026-04-12,2191.65,113.57,100.2457,4.574
2026-04-13,2369.46,219.03,108.4107,4.5753
2026-04-14,2322.44,112.6,108.4971,4.6717
2026-04-15,2359.95,77.11,107.8786,4.5712
2026-04-16,2348.17,84.49,103.7471,4.4182
2026-04-17,2419.0,147.48,111.3457,4.603
2026-04-18,2350.32,87.72,114.7993,4.8844
2026-04-19,2263.27,102.58,114.8414,5.0741
2026-04-20,2313.85,87.11,114.8286,4.9627
2026-04-21,2327.14,54.56,103.4664,4.4461
2026-04-22,2374.07,110.8,104.8971,4.4185
2026-04-23,2330.26,96.58,105.4607,4.5257
2026-04-24,2314.99,37.28,102.2743,4.4179
2026-04-25,2319.5,22.66,96.6836,4.1683
2026-04-26,2369.44,73.28,93.8057,3.959
2026-04-27,2303.67,138.28,88.0379,3.8216
2026-04-28,2289.42,52.64,83.755,3.6584
2026-04-29,2252.9,126.59,87.2893,3.8745
2026-04-30,2257.51,47.36,84.6371,3.7491
2026-05-01,2295.63,68.07,78.965,3.4398
2026-05-02,2316.97,50.69,76.32,3.294
2026-05-03,2322.65,59.33,73.2307,3.1529
2026-05-04,2347.16,89.69,73.415,3.1278
2026-05-05,2360.77,54.57,73.4157,3.1098
2026-05-06,2350.84,85.74,71.6257,3.0468
2026-05-07,2291.06,72.2,69.8843,3.0503
2026-05-08,2307.06,55.61,71.1936,3.0859
2026-05-09,2326.44,38.37,72.3157,3.1084
2026-05-10,2371.27,70.7,72.1314,3.0419
2026-05-11,2339.87,70.92,67.32,2.8771
2026-05-12,2274.96,84.58,69.6014,3.0595
2026-05-13,2258.65,89.23,66.9329,2.9634
2026-05-14,2283.25,80.69,69.3136,3.0357
2026-05-15,2224.66,95.18,71.25,3.2027
2026-05-16,2180.77,68.96,72.555,3.327
2026-05-17,2131.0,106.66,75.9357,3.5634
2026-05-18,2130.08,80.01,75.2443,3.5325
2026-05-19,2111.93,52.48,75.095,3.5558
2026-05-20,2129.44,45.71,72.2357,3.3922
2026-05-21,2133.76,52.35,70.8179,3.3189
2026-05-22,2065.85,83.6,72.8171,3.5248
2026-05-23,2117.68,140.65,80.1229,3.7835
2026-05-24,2099.85,69.14,80.0114,3.8103
2026-05-25,2113.01,49.72,78.4971,3.7149
2026-05-26,2073.77,85.43,78.5579,3.7882
2026-05-27,2024.84,81.4,77.9986,3.8521
2026-05-28,2009.9,63.0,76.735,3.8179
2026-05-29,2014.54,70.11,74.9443,3.7202
2026-05-30,2022.44,30.0,72.1614,3.568
2026-05-31,2007.01,44.25,67.7036,3.3734
