date,close,tr,atr_14,atr_14_pct
2021-06-01,36693.09,2228.81,,
2021-06-02,37568.68,2305.0,,
2021-06-03,39246.79,2306.0,,
2021-06-04,36829.0,3733.92,,
2021-06-05,35513.2,3125.0,,
2021-06-06,35796.31,1258.0,,
2021-06-07,33552.79,3600.0,,
2021-06-08,33380.81,3068.01,,
2021-06-09,37388.05,5137.97,,
2021-06-10,36675.72,2709.0,,
2021-06-11,37331.98,1743.63,,
2021-06-12,35546.11,2863.27,,
2021-06-13,39020.57,4623.0,,
2021-06-14,40516.29,2334.05,2931.1186,7.2344
2021-06-15,40144.04,1823.6,2902.175,7.2294
2021-06-16,38349.01,2411.13,2909.7557,7.5876
2021-06-17,38092.97,2194.88,2901.8186,7.6177
2021-06-18,35819.84,3073.55,2854.6493,7.9695
2021-06-19,35483.72,1653.48,2749.5407,7.7487
2021-06-20,35600.16,2801.72,2859.8064,8.0331
2021-06-21,31608.93,4498.77,2924.0043,9.2506
2021-06-22,32509.56,4493.78,3025.845,9.3076
2021-06-23,33678.07,3198.0,2887.2757,8.5732
2021-06-24,34663.09,3011.43,2908.8779,8.3919
2021-06-25,31584.45,4225.0,3086.1186,9.771
2021-06-26,32283.65,2579.0,3065.8136,9.4965
2021-06-27,34700.34,2775.55,2933.8529,8.4548
2021-06-28,34494.89,1434.99,2869.6343,8.319
2021-06-29,35911.73,2374.57,2908.9893,8.1004
2021-06-30,35045.0,2082.45,2885.5121,8.2337
2021-07-01,33504.69,2346.57,2896.3471,8.6446
2021-07-02,33786.55,1278.04,2768.0964,8.1929
2021-07-03,34669.13,1628.88,2766.3393,7.9793
2021-07-04,35286.51,1610.7,2681.2664,7.5986
2021-07-05,33690.14,2168.23,2514.7993,7.4645
2021-07-06,34220.01,1586.88,2307.1636,6.7421
2021-07-07,33862.12,1281.32,2170.2579,6.4091
2021-07-08,32875.71,1852.64,2087.4871,6.3496
2021-07-09,33815.81,1838.93,1917.0536,5.6691
2021-07-10,33502.87,1257.22,1822.6407,5.4403
2021-07-11,34258.99,1359.53,1721.4964,5.0249
2021-07-12,33086.63,2020.09,1763.2893,5.3293
2021-07-13,32729.77,1137.75,1674.945,5.1175
2021-07-14,32820.02,1564.03,1637.915,4.9906
2021-07-15,31880.0,2052.25,1616.8921,5.0718
2021-07-16,31383.87,1229.18,1613.4021,5.1409
2021-07-17,31520.07,791.61,1553.5971,4.9289
2021-07-18,31778.56,1326.03,1533.2636,4.8248
2021-07-19,30839.65,1491.56,1484.93,4.815
2021-07-20,29790.35,1785.07,1499.0864,5.0321
2021-07-21,32144.51,3375.39,1648.6629,5.1289
2021-07-22,32287.83,883.35,1579.4279,4.8917
2021-07-23,33634.09,1725.68,1571.3386,4.6719
2021-07-24,34258.14,1098.86,1560.0271,4.5537
2021-07-25,35381.02,1546.88,1573.4093,4.447
2021-07-26,37237.6,5344.22,1810.8471,4.863
2021-07-27,39457.87,3159.61,1955.2657,4.9553
2021-07-28,40019.56,2128.0,1995.5493,4.9864
2021-07-29,40016.48,1440.0,1951.8171,4.8775
2021-07-30,42206.37,4003.48,2149.9814,5.094
2021-07-31,41461.83,1447.85,2196.8557,5.2985
2021-08-01,39845.44,3176.99,2329.0671,5.8453
2021-08-02,39147.82,1790.01,2350.385,6.0039
2021-08-03,38207.05,2137.97,2375.5921,6.2177
2021-08-04,39723.18,2461.1,2310.2857,5.816
2021-08-05,40862.46,4017.3,2534.1393,6.2016
2021-08-06,42836.87,3538.57,2663.6314,6.2181
2021-08-07,44572.54,2253.59,2746.1121,6.161
2021-08-08,43794.37,2049.0,2781.9779,6.3524
2021-08-09,46253.4,3675.15,2662.7586,5.7569
2021-08-10,45584.99,2110.54,2587.825,5.6769
2021-08-11,45511.0,1402.33,2535.9914,5.5723
2021-08-12,44399.0,2448.12,2608.0,5.874
2021-08-13,47800.0,3668.61,2584.0807,5.406
2021-08-14,47068.51,2172.97,2635.875,5.6001
2021-08-15,46973.82,1872.27,2542.6807,5.413
2021-08-16,45901.29,2393.83,2585.8107,5.6334
2021-08-17,44695.95,2784.0,2631.9557,5.8886
2021-08-18,44705.29,1796.72,2584.5,5.7812
2021-08-19,46760.62,3105.3,2519.3571,5.3878
2021-08-20,49322.47,2760.0,2463.745,4.9952
2021-08-21,48821.87,1535.04,2412.42,4.9413
2021-08-22,49239.22,1450.0,2369.6343,4.8125
2021-08-23,49488.85,1471.0,2212.195,4.4701
2021-08-24,47674.01,2260.0,2222.8707,4.6626
2021-08-25,48973.32,2138.02,2275.42,4.6462
2021-08-26,46843.87,3102.84,2322.1857,4.9573
2021-08-27,49069.9,2801.93,2260.28,4.6062
2021-08-28,48895.35,952.12,2173.0764,4.4443
2021-08-29,48767.83,1869.73,2172.895,4.4556
2021-08-30,46982.91,2035.61,2147.3079,4.5704
2021-08-31,47100.89,1546.11,2058.8871,4.3712
2021-09-01,48810.52,2644.0,2119.4071,4.3421
2021-09-02,49246.64,1866.07,2030.8907,4.1239
2021-09-03,49999.14,2683.16,2025.4021,4.0509
2021-09-04,49915.64,1165.69,1999.02,4.0048
2021-09-05,51756.88,2450.0,2070.4486,4.0003
2021-09-06,52663.9,1810.67,2094.7107,3.9775
2021-09-07,46863.73,10076.95,2653.0643,5.6612
2021-09-08,46048.31,2928.97,2709.5607,5.8842
2021-09-09,46395.14,1886.89,2622.7071,5.653
2021-09-10,44850.91,2900.71,2629.7629,5.8633
2021-09-11,45173.69,1265.71,2652.1621,5.871
2021-09-12,46025.24,1717.94,2641.32,5.7389
2021-09-13,44940.73,3510.0,2746.6336,6.1117
2021-09-14,47111.52,2655.56,2825.88,5.9983
2021-09-15,48121.41,1817.68,2766.8571,5.7497
2021-09-16,47737.82,1535.9,2743.2736,5.7465
2021-09-17,47299.98,1450.44,2655.2221,5.6136
2021-09-18,48292.74,1807.64,2701.0757,5.5931
2021-09-19,47241.75,1543.65,2636.3364,5.5805
2021-09-20,43015.62,4847.25,2853.235,6.633
2021-09-21,40734.38,4039.0,2421.9529,5.9457
2021-09-22,43543.61,3435.16,2458.1093,5.6452
2021-09-23,44865.26,1908.91,2459.6821,5.4824
2021-09-24,42810.57,4525.0,2575.7029,6.0165
2021-09-25,42670.64,1320.56,2579.6207,6.0454
2021-09-26,43160.9,3200.0,2685.4821,6.222
2021-09-27,42147.35,2252.0,2595.625,6.1585
2021-09-28,41026.54,1899.38,2541.6121,6.195
2021-09-29,41524.28,1836.12,2542.9293,6.124
2021-09-30,43824.1,2731.2,2628.3079,5.9974
2021-10-01,48141.61,5211.97,2896.9886,6.0176
2021-10-02,47634.9,906.41,2832.615,5.9465
2021-10-03,48200.01,2140.08,2875.2171,5.9652
2021-10-04,49224.94,2645.12,2717.9221,5.5214
2021-10-05,51471.99,2863.9,2633.9864,5.1173
2021-10-06,55315.0,5367.59,2772.0171,5.0113
2021-10-07,53785.22,1975.31,2776.76,5.1627
2021-10-08,53951.43,2482.39,2630.8593,4.8763
2021-10-09,54949.72,1827.33,2667.0571,4.8536
2021-10-10,54659.0,2481.31,2615.7221,4.7855
2021-10-11,57471.35,3423.98,2699.435,4.697
2021-10-12,55996.93,3801.0,2835.265,5.0633
2021-10-13,57367.0,3609.81,2961.9571,5.1632
2021-10-14,57347.94,1714.49,2889.335,5.0383
2021-10-15,61672.42,6083.0,2951.5514,4.7859
2021-10-16,60875.57,2228.42,3045.9807,5.0036
2021-10-17,61528.33,2755.39,3089.9314,5.022
2021-10-18,62009.84,2851.33,3104.6607,5.0067
2021-10-19,64280.59,3163.78,3126.0807,4.8632
2021-10-20,66001.41,3518.6,2994.01,4.5363
2021-10-21,62193.15,4639.74,3184.3264,5.1201
2021-10-22,60688.22,3732.39,3273.6121,5.3941
2021-10-23,61286.75,2185.49,3299.195,5.3832
2021-10-24,60852.22,1989.37,3264.0564,5.3639
2021-10-25,63078.78,3060.63,3238.1029,5.1334
2021-10-26,60328.81,3475.93,3214.8836,5.3289
2021-10-27,58413.44,3496.0,3206.7543,5.4898
2021-10-28,60575.89,4679.0,3418.505,5.6433
2021-10-29,62253.71,2805.19,3184.3757,5.1152
2021-10-30,61859.19,1686.25,3145.6493,5.0852
2021-10-31,61299.8,2459.94,3124.5457,5.0972
2021-11-01,60911.11,3032.74,3137.5036,5.151
2021-11-02,63219.99,3645.32,3171.8993,5.0172
2021-11-03,62896.48,3117.24,3143.2307,4.9975
2021-11-04,61395.01,2409.3,2983.9136,4.8602
2021-11-05,60937.12,1874.72,2851.2229,4.679
2021-11-06,61470.61,1510.49,2803.0086,4.5599
2021-11-07,63273.59,1963.57,2801.1657,4.4271
2021-11-08,67525.83,4515.42,2905.0793,4.3022
2021-11-09,66947.66,2301.85,2821.2164,4.2141
2021-11-10,64882.43,6177.1,3012.7236,4.6434
2021-11-11,64774.26,1500.07,2785.6571,4.3006
2021-11-12,64122.23,3172.7,2811.9079,4.3852
2021-11-13,64380.0,1639.78,2808.5886,4.3625
2021-11-14,65519.1,1974.24,2773.8957,4.2337
2021-11-15,63606.74,3001.82,2771.6871,4.3575
2021-11-16,60058.87,5043.24,2871.5386,4.7812
2021-11-17,60344.87,2467.23,2825.1093,4.6816
2021-11-18,56891.62,4501.74,2974.5693,5.2285
2021-11-19,58052.24,2720.0,3034.9464,5.228
2021-11-20,59707.51,2492.0,3105.0543,5.2004
2021-11-21,58622.02,1543.11,3075.0214,5.2455
2021-11-22,56247.18,3834.0,3026.3486,5.3804
2021-11-23,57541.27,2692.99,3054.2871,5.308
2021-11-24,57138.29,1898.0,2748.6371,4.8105
2021-11-25,58960.36,2398.9,2812.8393,4.7707
2021-11-26,53726.53,5650.0,2989.7893,5.5648
2021-11-27,54721.03,1670.0,2991.9479,5.4676
2021-11-28,57274.88,4188.41,3150.1029,5.5
2021-11-29,57776.25,2199.3,3092.78,5.353
2021-11-30,56950.56,3301.44,2968.3657,5.2122
2021-12-01,57184.07,2595.54,2977.5307,5.2069
2021-12-02,56480.34,1597.7,2770.0993,4.9045
2021-12-03,53601.05,5920.0,2998.6707,5.5944
2021-12-04,49152.47,11858.8,3667.7279,7.4619
2021-12-05,49396.33,1971.84,3698.3514,7.4871
2021-12-06,50441.92,3791.11,3695.2879,7.3258
2021-12-07,50588.95,1896.59,3638.4021,7.1921
2021-12-08,50471.19,2600.0,3688.545,7.3082
2021-12-09,47545.59,3477.76,3765.6064,7.92
2021-12-10,47140.54,3273.0,3595.8207,7.6279
2021-12-11,49389.99,2734.71,3671.8714,7.4344
2021-12-12,50053.9,2139.0,3525.485,7.0434
2021-12-13,46702.75,4517.22,3691.0507,7.9033
2021-12-14,48343.28,2410.41,3627.4057,7.5034
2021-12-15,48864.98,2953.0,3652.9386,7.4756
2021-12-16,47632.38,1925.43,3676.3479,7.7182
2021-12-17,46131.2,2539.96,3434.9164,7.446
2021-12-18,46834.48,1892.37,2723.0286,5.8142
2021-12-19,46681.23,1893.1,2717.4043,5.8212
2021-12-20,46914.16,1978.72,2587.9479,5.5163
2021-12-21,48889.88,2698.96,2645.26,5.4106
2021-12-22,48588.16,1154.26,2541.9929,5.2317
2021-12-23,50838.81,3454.58,2540.3371,4.9968
2021-12-24,50820.0,1425.57,2408.3779,4.739
2021-12-25,50399.66,1013.91,2285.4636,4.5347
2021-12-26,50775.49,1868.0,2266.1064,4.463
2021-12-27,50701.44,1639.0,2060.5193,4.064
2021-12-28,47543.74,3391.04,2130.5643,4.4813
2021-12-29,46464.66,2042.09,2065.4993,4.4453
2021-12-30,47120.87,2000.0,2070.8257,4.3947
2021-12-31,46216.93,2870.26,2094.4186,4.5317
2022-01-01,47722.65,1746.26,2083.9821,4.3669
2022-01-02,47286.18,1336.0,2044.1893,4.323
2022-01-03,46446.1,1874.0,2036.7093,4.3851
2022-01-04,45832.01,2057.54,1990.8936,4.3439
2022-01-05,43451.13,4570.0,2234.875,5.1434
2022-01-06,43082.31,1385.42,2087.0779,4.8444
2022-01-07,41566.48,2535.83,2166.3821,5.2118
2022-01-08,41679.74,1799.0,2222.46,5.3322
2022-01-09,41864.62,1586.68,2202.3657,5.2607
2022-01-10,41822.49,2598.5,2270.9014,5.4299
2022-01-11,42729.29,1831.07,2159.475,5.0539
2022-01-12,43902.66,1872.0,2147.3257,4.8911
2022-01-13,42560.11,2188.78,2160.81,5.0771
2022-01-14,43059.96,1722.83,2078.8507,4.8278
2022-01-15,43084.29,1245.0,2043.0464,4.742
2022-01-16,43071.66,893.21,2011.4186,4.6699
2022-01-17,42201.62,1635.76,1994.4014,4.7259
2022-01-18,42352.12,1441.0,1950.3629,4.6051
2022-01-19,41660.01,1420.57,1725.4036,4.1416
2022-01-20,40680.91,2951.69,1837.28,4.5163
2022-01-21,36445.31,5659.55,2060.4029,5.6534
2022-01-22,35071.42,2827.22,2133.8471,6.0843
2022-01-23,36244.55,1897.99,2156.0836,5.9487
2022-01-24,36660.35,4632.83,2301.3929,6.2776
2022-01-25,36958.32,1844.14,2302.3264,6.2295
2022-01-26,36809.34,2685.35,2360.4229,6.4126
2022-01-27,37160.1,1727.46,2327.4714,6.2634
2022-01-28,37716.56,1844.99,2336.1971,6.1941
2022-01-29,38166.84,1452.3,2351.0043,6.1598
2022-01-30,37881.76,1007.63,2359.1771,6.2277
2022-01-31,38466.9,2111.39,2393.1507,6.2213
2022-02-01,38694.59,1265.2,2380.5936,6.1523
2022-02-02,36896.36,2268.97,2441.1936,6.6164
2022-02-03,37311.61,1137.0,2311.5729,6.1953
2022-02-04,41574.25,4745.6,2246.2907,5.4031
2022-02-05,41382.59,1070.68,2120.8236,5.1249
2022-02-06,42380.87,1539.44,2095.2129,4.9438
2022-02-07,43839.99,2854.65,1968.2,4.4895
2022-02-08,44042.99,2826.0,2038.3329,4.6281
2022-02-09,44372.72,1681.08,1966.5993,4.432
2022-02-10,43495.44,2646.99,2032.28,4.6724
2022-02-11,42373.73,1981.49,2042.03,4.8191
2022-02-12,42217.87,1390.61,2037.6236,4.8264
2022-02-13,42053.66,890.0,2029.2214,4.8253
2022-02-14,42535.94,1291.84,1970.6821,4.633
2022-02-15,44544.86,2324.37,2046.3371,4.5939
2022-02-16,43873.56,1242.97,1973.0514,4.4971
2022-02-17,40515.7,4091.5,2184.0871,5.3907
2022-02-18,39974.44,1509.88,1952.9643,4.8855
2022-02-19,40079.17,805.29,1934.0079,4.8255
2022-02-20,38386.89,2125.44,1975.865,5.1472
2022-02-21,37008.16,2694.35,1964.415,5.3081
2022-02-22,38230.33,2079.0,1911.0579,4.9988
2022-02-23,37250.01,2213.14,1949.0621,5.2324
2022-02-24,38327.21,5520.72,2154.3286,5.6209
2022-02-25,39219.17,1669.16,2132.0193,5.4362
2022-02-26,39116.72,1775.27,2159.495,5.5206
2022-02-27,37699.07,2855.7,2299.9021,6.1007
2022-02-28,43160.0,6775.67,2691.6043,6.2363
2022-03-01,44421.2,2139.02,2678.365,6.0295
2022-03-02,43892.98,2065.91,2737.1464,6.236
2022-03-03,42454.0,2268.84,2606.9564,6.1407
2022-03-04,39148.66,3977.3,2783.2007,7.1093
2022-03-05,39397.96,1205.65,2811.7979,7.1369
2022-03-06,38420.81,1605.3,2774.645,7.2217
2022-03-07,37988.0,2392.57,2753.0893,7.2473
2022-03-08,38730.63,1494.43,2711.3343,7.0005
2022-03-09,41941.71,3937.61,2834.5107,6.7582
2022-03-10,39422.0,3499.9,2690.1664,6.824
2022-03-11,38729.57,2012.66,2714.7021,7.0094
2022-03-12,38807.36,826.19,2646.9107,6.8206
2022-03-13,37777.34,1731.49,2566.61,6.794
2022-03-14,39671.37,2392.12,2253.4993,5.6804
2022-03-15,39280.33,1789.28,2228.5179,5.6734
2022-03-16,41114.0,2889.52,2287.3471,5.5634
2022-03-17,40917.9,978.82,2195.2029,5.3649
2022-03-18,41757.51,2189.98,2067.5371,4.9513
2022-03-19,42201.13,900.71,2045.7557,4.8476
2022-03-20,41262.11,1385.26,2030.0386,4.9199
2022-03-21,41002.25,1076.28,1936.0179,4.7217
2022-03-22,42364.13,2485.49,2006.8079,4.737
2022-03-23,42882.76,1274.49,1816.585,4.2362
2022-03-24,43991.46,1660.43,1685.1943,3.8307
2022-03-25,44313.16,1515.14,1649.6571,3.7227
2022-03-26,44511.27,721.02,1642.145,3.6893
2022-03-27,46827.76,2577.54,1702.5771,3.6358
2022-03-28,47122.21,1526.28,1640.7314,3.4819
2022-03-29,47434.8,1145.62,1594.7557,3.362
2022-03-30,47067.99,1254.8,1477.99,3.1401
2022-03-31,45510.34,2400.0,1579.5029,3.4706
2022-04-01,46283.49,2520.09,1603.0821,3.4636
2022-04-02,45811.0,1593.0,1652.5314,3.6073
2022-04-03,46407.35,1913.19,1690.2407,3.6422
2022-04-04,46580.51,1772.71,1739.9857,3.7354
2022-04-05,45497.55,1846.19,1694.3214,3.724
2022-04-06,43170.47,2386.14,1773.725,4.1087
2022-04-07,43444.19,1173.64,1738.9543,4.0027
2022-04-08,42252.01,1863.48,1763.8357,4.1746
2022-04-09,42753.97,674.52,1760.5143,4.1178
2022-04-10,42158.85,1542.3,1686.5686,4.0005
2022-04-11,39530.45,3214.71,1807.1707,4.5716
2022-04-12,40074.94,1444.37,1828.51,4.5627
2022-04-13,41147.79,1972.77,1879.7936,4.5684
2022-04-14,39942.38,1948.06,1847.5121,4.6254
2022-04-15,40551.9,1103.96,1746.36,4.3065
2022-04-16,40378.71,717.8,1683.8457,4.1701
2022-04-17,39678.12,1049.5,1622.1536,4.0883
2022-04-18,40801.13,2580.22,1679.8329,4.1171
2022-04-19,41493.18,1189.0,1632.8907,3.9353
2022-04-20,41358.19,1379.0,1560.9521,3.7742
2022-04-21,40480.01,3225.0,1707.4779,4.2181
2022-04-22,39709.18,1618.06,1689.9479,4.2558
2022-04-23,39441.6,695.0,1691.4107,4.2884
2022-04-24,39450.13,1010.38,1653.4164,4.1912
2022-04-25,40426.08,2416.0,1596.3657,3.9489
2022-04-26,38112.65,3095.05,1714.2714,4.4979
2022-04-27,39235.72,1593.41,1687.1743,4.3001
2022-04-28,39742.07,1491.2,1654.5414,4.1632
2022-04-29,38596.11,1750.25,1700.705,4.4064
2022-04-30,37630.8,1217.18,1736.375,4.6142
2022-05-01,38468.35,1288.62,1753.455,4.5582
2022-05-02,38525.16,1115.34,1648.8207,4.2799
2022-05-03,37728.95,1133.71,1644.8714,4.3597
2022-05-04,39690.0,2353.77,1714.4979,4.3197
2022-05-05,36552.97,4273.61,1789.3986,4.8954
2022-05-06,36013.77,1417.63,1775.0821,4.9289
2022-05-07,35472.39,1361.3,1822.675,5.1383
2022-05-08,34038.4,1800.27,1879.0957,5.5205
2022-05-09,30076.31,4209.82,2007.2257,6.6738
2022-05-10,31017.1,2928.59,1995.3357,6.433
2022-05-11,29103.94,4377.59,2194.2057,7.5392
2022-05-12,29029.75,3543.0,2340.7629,8.0633
2022-05-13,29287.05,2331.7,2382.295,8.1343
2022-05-14,30086.74,1713.27,2417.73,8.0359
2022-05-15,31328.89,1980.0,2467.1143,7.8749
2022-05-16,29874.01,2241.86,2547.58,8.5277
2022-05-17,30444.93,1337.99,2562.1714,8.4158
2022-05-18,28715.32,2055.52,2540.8679,8.8485
2022-05-19,30319.23,1853.8,2368.0243,7.8103
2022-05-20,29201.01,2047.33,2413.0029,8.2634
2022-05-21,29445.06,708.9,2366.4029,8.0367
2022-05-22,30293.94,1232.88,2325.875,7.6777
2022-05-23,29109.15,1804.16,2154.0421,7.3999
2022-05-24,29654.58,1176.86,2028.9186,6.8418
2022-05-25,29542.15,929.53,1782.6286,6.0342
2022-05-26,29201.35,1867.08,1662.92,5.6947
2022-05-27,28629.8,1114.76,1575.9957,5.5047
2022-05-28,29031.33,816.0,1511.905,5.2078
2022-05-29,29468.1,748.57,1423.9457,4.8322
2022-05-30,31734.22,2922.38,1472.5543,4.6403
2022-05-31,31801.04,1198.99,1462.6257,4.5993
2022-06-01,29805.83,2681.97,1507.3721,5.0573
2022-06-02,30452.62,1094.45,1453.1329,4.7718
2022-06-03,29700.21,1416.64,1408.0836,4.741
2022-06-04,29864.04,503.88,1393.4393,4.6659
2022-06-05,29919.21,657.58,1352.3464,4.52
2022-06-06,31373.1,1875.41,1357.4357,4.3268
2022-06-07,31125.33,2370.64,1442.7057,4.6351
2022-06-08,30204.77,1483.34,1482.2636,4.9074
2022-06-09,30109.93,755.9,1402.8936,4.6592
2022-06-10,29091.88,1532.8,1432.7536,4.9249
2022-06-11,28424.7,1340.42,1470.2121,5.1723
2022-06-12,26574.53,1984.96,1558.5257,5.8647
2022-06-13,22487.41,4970.07,1704.7893,7.5811
2022-06-14,22136.41,2516.88,1798.9243,8.1265
2022-06-15,22583.72,2688.38,1799.3821,7.9676
2022-06-16,20401.31,2763.73,1918.6164,9.4044
2022-06-17,20468.81,1118.77,1897.34,9.2694
2022-06-18,18970.79,3170.06,2087.7814,11.0052
2022-06-19,20574.0,2855.54,2244.7786,10.9108
2022-06-20,20573.89,1452.97,2214.6043,10.7641
2022-06-21,20723.52,1374.6,2143.4586,10.3431
2022-06-22,19987.99,1129.49,2118.1836,10.5973
2022-06-23,21110.13,1342.93,2160.1143,10.2326
2022-06-24,21237.69,821.69,2109.3207,9.932
2022-06-25,21491.19,707.88,2064.1393,9.6046
2022-06-26,21038.07,923.27,1988.3043,9.451
2022-06-27,20742.56,1029.85,1706.86,8.2288
2022-06-28,20281.29,1010.09,1599.2321,7.8853
2022-06-29,20123.01,577.39,1448.4471,7.198
2022-06-30,19942.21,1553.08,1361.9721,6.8296
2022-07-01,19279.8,1943.35,1420.8707,7.3697
2022-07-02,19252.81,490.38,1229.465,6.3859
2022-07-03,19315.83,866.63,1087.4,5.6296
2022-07-04,20236.71,1298.7,1076.3807,5.319
2022-07-05,20175.83,1445.6,1081.4521,5.3601
2022-07-06,20564.51,913.97,1066.0579,5.184
2022-07-07,21624.98,1586.42,1083.45,5.0102
2022-07-08,21594.75,1338.11,1120.3371,5.188
2022-07-09,21591.83,657.88,1116.7657,5.1722
2022-07-10,20862.47,952.65,1118.8643,5.363
2022-07-11,19963.61,993.25,1116.25,5.5914
2022-07-12,19328.75,819.42,1102.6307,5.7046
2022-07-13,20234.87,1455.67,1165.365,5.7592
2022-07-14,20588.84,1283.93,1146.14,5.5668
2022-07-15,20830.04,817.71,1065.7371,5.1163
2022-07-16,21195.6,1110.33,1110.0193,5.237
2022-07-17,20798.16,934.53,1114.8693,5.3604
2022-07-18,22432.58,2015.18,1166.0464,5.198
2022-07-19,23396.62,2220.46,1221.3936,5.2204
2022-07-20,23223.3,1370.55,1254.0064,5.3998
2022-07-21,23152.19,1101.31,1219.3557,5.2667
2022-07-22,22684.83,1256.49,1213.5257,5.3495
2022-07-23,22451.07,1066.2,1242.6914,5.5351
2022-07-24,22579.68,757.49,1228.7514,5.4418
2022-07-25,21310.9,1416.0,1258.9479,5.9075
2022-07-26,21254.67,641.32,1246.2264,5.8633
2022-07-27,22952.45,2070.1,1290.1143,5.6208
2022-07-28,23842.93,1617.59,1313.9471,5.5108
2022-07-29,23773.75,1028.63,1329.0129,5.5903
2022-07-30,23643.51,1165.75,1332.9714,5.6378
2022-07-31,23293.32,967.51,1335.3271,5.7327
2022-08-01,23268.01,659.68,1238.5057,5.3228
2022-08-02,22987.79,805.52,1137.4386,4.948
2022-08-03,22818.37,966.46,1108.575,4.8583
2022-08-04,22622.98,823.32,1088.7186,4.8124
2022-08-05,23312.42,885.91,1062.2486,4.5566
2022-08-06,22954.21,444.84,1017.8657,4.4343
2022-08-07,23174.39,557.38,1003.5721,4.3305
2022-08-08,23810.0,1090.75,980.34,4.1173
2022-08-09,23149.95,1068.25,1010.835,4.3665
2022-08-10,23954.05,1561.31,974.4929,4.0682
2022-08-11,23934.39,1066.41,935.1229,3.907
2022-08-12,24403.68,873.5,924.0421,3.7865
2022-08-13,24441.38,596.78,883.4014,3.6144
2022-08-14,24305.24,903.56,878.8336,3.6158
2022-08-15,24094.82,1438.1,934.435,3.8782
2022-08-16,23854.74,576.27,918.06,3.8485
2022-08-17,23342.66,1266.31,939.4779,4.0247
2022-08-18,23191.2,488.96,915.595,3.948
2022-08-19,20834.39,2425.1,1025.5371,4.9223
2022-08-20,21140.07,620.95,1038.1164,4.9107
2022-08-21,21515.61,730.89,1050.51,4.8825
2022-08-22,21399.83,658.53,1019.6371,4.7647
2022-08-23,21529.12,794.73,1000.1,4.6453
2022-08-24,21368.08,755.0,942.5064,4.4108
2022-08-25,21559.04,509.73,902.7436,4.1873
2022-08-26,20241.05,1778.87,967.4129,4.7795
2022-08-27,20037.6,602.93,967.8521,4.8302
2022-08-28,19555.61,651.18,949.825,4.857
2022-08-29,20285.73,882.83,910.1629,4.4867
2022-08-30,19811.66,1036.25,943.0186,4.7599
2022-08-31,20050.02,692.06,902.0007,4.4988
2022-09-01,20131.46,642.71,912.9829,4.5351
2022-09-02,19951.86,685.97,788.7593,3.9533
2022-09-03,19831.9,403.21,773.2064,3.8988
2022-09-04,20000.3,446.13,752.8664,3.7643
2022-09-05,19796.84,423.44,736.0743,3.7181
2022-09-06,18790.61,1530.49,788.6286,4.1969
2022-09-07,19292.84,953.29,802.7921,4.1611
2022-09-08,19319.77,446.25,798.2579,4.1318
2022-09-09,21360.11,2305.47,835.8721,3.9132
2022-09-10,21648.34,699.67,842.7821,3.8931
2022-09-11,21826.87,510.0,832.6979,3.815
2022-09-12,22395.74,949.49,837.4593,3.7394
2022-09-13,20173.57,2939.0,973.37,4.825
2022-09-14,20226.71,923.86,989.9271,4.8942
2022-09-15,19701.88,833.24,1003.5364,5.0936
2022-09-16,19803.3,569.99,995.2521,5.0257
2022-09-17,20113.62,440.92,997.9457,4.9615
2022-09-18,19416.18,781.64,1021.9107,5.2632
2022-09-19,19537.02,1453.64,1095.4964,5.6073
2022-09-20,18875.0,922.75,1052.0864,5.574
2022-09-21,18461.36,1830.02,1114.71,6.0381
2022-09-22,19401.63,1193.78,1168.105,6.0207
2022-09-23,19289.91,968.58,1072.6129,5.5605
2022-09-24,18920.5,510.8,1059.1221,5.5977
2022-09-25,18807.38,551.01,1062.0514,5.647
2022-09-26,19227.82,638.24,1039.8193,5.4079
2022-09-27,19079.13,1569.54,942.0007,4.9373
2022-09-28,19412.82,1318.72,970.205,4.9978
2022-09-29,19591.51,802.51,968.01,4.941
2022-09-30,19422.61,1029.64,1000.8421,5.153
2022-10-01,19310.95,324.58,992.5321,5.1397
2022-10-02,19056.8,475.56,970.6693,5.0936
2022-10-03,19629.08,759.42,921.0821,4.6924
2022-10-04,20337.82,984.4,925.4857,4.5506
2022-10-05,20158.26,635.6,840.17,4.1679
2022-10-06,19960.67,603.6,798.0143,3.9979
2022-10-07,19530.09,748.82,782.3171,4.0057
2022-10-08,19417.96,390.24,773.7057,3.9845
2022-10-09,19439.02,241.96,751.6307,3.8666
2022-10-10,19131.87,504.75,742.0957,3.8788
2022-10-11,19060.0,408.09,659.135,3.4582
2022-10-12,19155.53,272.43,584.4,3.0508
2022-10-13,19375.13,1323.79,621.6343,3.2084
2022-10-14,19176.93,881.5,611.0529,3.1864
2022-10-15,19069.39,252.5,605.9043,3.1774
2022-10-16,19262.98,362.1,597.8,3.1034
2022-10-17,19549.86,524.93,581.0507,2.9721
2022-10-18,19327.44,615.66,554.7121,2.8701
2022-10-19,19123.97,294.19,530.3257,2.7731
2022-10-20,19041.92,447.82,519.1986,2.7266
2022-10-21,19164.37,600.0,508.5686,2.6537
2022-10-22,19204.35,144.28,491.0,2.5567
2022-10-23,19570.4,624.89,518.3521,2.6487
2022-10-24,19329.72,444.15,514.0236,2.6592
2022-10-25,20080.07,1178.87,569.0793,2.8341
2022-10-26,20771.59,969.59,618.8764,2.9794
2022-10-27,20295.11,672.21,572.335,2.8201
2022-10-28,20591.84,749.91,562.9357,2.7338
2022-10-29,20809.67,530.99,582.8279,2.8008
2022-10-30,20627.48,416.21,586.6929,2.8442
2022-10-31,20490.74,607.97,592.6243,2.8922
2022-11-01,20483.62,369.26,575.0243,2.8072
2022-11-02,20151.84,751.96,607.7221,3.0157
2022-11-03,20207.82,362.08,601.5979,2.9771
2022-11-04,21148.52,1121.09,638.8186,3.0206
2022-11-05,21299.37,400.0,657.0843,3.085
2022-11-06,20905.58,479.14,646.6736,3.0933
2022-11-07,20591.13,684.88,663.8686,3.2241
2022-11-08,18547.23,3534.05,832.0957,4.4864
2022-11-09,15922.81,2999.76,977.1079,6.1365
2022-11-10,17601.15,2444.74,1103.7171,6.2707
2022-11-11,17070.31,1333.4,1145.395,6.7099
2022-11-12,16812.08,487.71,1142.3036,6.7945
2022-11-13,16329.85,725.28,1164.38,7.1304
2022-11-14,16619.46,1374.79,1219.1529,7.3357
2022-11-15,16900.57,606.97,1236.1321,7.3141
2022-11-16,16662.76,637.31,1227.9429,7.3694
2022-11-17,16692.56,340.26,1226.3843,7.3469
2022-11-18,16700.45,464.96,1179.5179,7.0628
2022-11-19,16700.68,268.88,1170.1521,7.0066
2022-11-20,16280.23,573.33,1176.88,7.2289
2022-11-21,15781.29,843.0,1188.1743,7.529
2022-11-22,16226.94,698.37,985.6257,6.074
2022-11-23,16603.11,545.8,810.3429,4.8807
2022-11-24,16598.95,354.58,661.0457,3.9825
2022-11-25,16522.14,323.19,588.8879,3.5642
2022-11-26,16458.57,316.99,576.6936,3.5039
2022-11-27,16428.78,199.0,539.1021,3.2814
2022-11-28,16212.91,491.77,476.0293,2.9361
2022-11-29,16442.53,448.71,464.725,2.8264
2022-11-30,17163.64,820.7,477.8243,2.7839
2022-12-01,16977.37,468.99,487.0193,2.8686
2022-12-02,17092.74,317.88,476.5136,2.7878
2022-12-03,16885.2,330.24,480.8964,2.848
2022-12-04,17105.7,324.59,463.1293,2.7075
2022-12-05,16966.35,557.25,442.7186,2.6094
2022-12-06,17088.96,200.64,407.1664,2.3826
2022-12-07,16836.64,463.38,401.2793,2.3834
2022-12-08,17224.1,565.51,416.3457,2.4172
2022-12-09,17128.56,301.79,414.8171,2.4218
2022-12-10,17127.49,135.72,401.8693,2.3463
2022-12-11,17085.05,199.99,401.94,2.3526
2022-12-12,17209.83,370.04,393.245,2.285
2022-12-13,17774.7,919.86,426.8986,2.4017
2022-12-14,17803.15,727.01,420.2064,2.3603
2022-12-15,17356.34,579.31,428.0864,2.4665
2022-12-16,16632.12,1004.41,477.1243,2.8687
2022-12-17,16776.52,216.97,469.0336,2.7958
2022-12-18,16738.21,200.19,460.1479,2.7491
2022-12-19,16438.88,559.69,460.3221,2.8002
2022-12-20,16895.56,664.07,493.4243,2.9204
2022-12-21,16824.67,202.0,474.7543,2.8218
2022-12-22,16821.43,308.67,456.4086,2.7133
2022-12-23,16778.5,224.01,450.8529,2.6871
2022-12-24,16836.12,93.37,447.8279,2.6599
2022-12-25,16832.11,136.96,443.3257,2.6338
2022-12-26,16919.39,153.52,427.86,2.5288
2022-12-27,16706.36,380.46,389.3314,2.3304
2022-12-28,16547.31,319.86,360.2493,2.1771
2022-12-29,16633.47,175.5,331.4057,1.9924
2022-12-30,16607.48,344.35,284.2586,1.7116
2022-12-31,16542.4,174.09,281.1957,1.6998
2023-01-01,16616.75,128.99,276.11,1.6616
2023-01-02,16672.87,250.53,254.0271,1.5236
2023-01-03,16675.18,173.12,218.9593,1.3131
2023-01-04,16850.36,339.21,228.76,1.3576
2023-01-05,16831.85,126.82,215.7707,1.2819
2023-01-06,16950.65,362.0,225.6271,1.3311
2023-01-07,16943.57,73.91,224.2371,1.3234
2023-01-08,17127.83,265.99,233.4536,1.363
2023-01-09,17178.26,294.14,243.4979,1.4175
2023-01-10,17440.66,352.66,241.5121,1.3848
2023-01-11,17943.26,684.4,267.5507,1.4911
2023-01-12,18846.62,1224.99,342.5143,1.8174
2023-01-13,19930.01,1285.88,409.7664,2.056
2023-01-14,20954.92,1369.95,495.185,2.3631
2023-01-15,20871.5,499.73,521.6664,2.4994
2023-01-16,21185.65,862.57,565.3836,2.6687
2023-01-17,21134.81,806.14,610.5993,2.8891
2023-01-18,20677.47,1242.85,675.145,3.2651
2023-01-19,21071.59,532.81,704.1443,3.3417
2023-01-20,22667.21,1894.65,813.6193,3.5894
2023-01-21,22783.55,949.8,876.1829,3.8457
2023-01-22,22707.88,786.34,913.3507,4.0222
2023-01-23,22916.45,680.0,940.9121,4.1058
2023-01-24,22632.89,699.27,965.67,4.2667
2023-01-25,23060.94,1516.73,1025.1221,4.4453
2023-01-26,23009.65,432.46,968.5129,4.2092
2023-01-27,23074.16,965.12,945.6014,4.0981
2023-01-28,23022.6,310.54,869.9293,3.7786
2023-01-29,23742.3,992.78,905.1471,3.8124
2023-01-30,22826.15,1300.51,936.4286,4.1024
2023-01-31,23125.13,605.23,922.0779,3.9873
2023-02-01,23732.66,1052.43,908.4764,3.828
2023-02-02,23488.94,891.73,934.1136,3.9768
2023-02-03,23431.9,511.08,835.2871,3.5647
2023-02-04,23326.84,333.82,791.2886,3.3922
2023-02-05,22932.91,690.33,784.4307,3.4205
2023-02-06,22762.52,530.12,773.725,3.3991
2023-02-07,23240.46,604.47,766.9536,3.3001
2023-02-08,22963.0,786.15,714.7693,3.1127
2023-02-09,21796.35,1323.39,778.4071,3.5713
2023-02-10,21625.19,487.16,744.2671,3.4417
2023-02-11,21862.55,306.54,743.9814,3.403
2023-02-12,21783.54,460.0,705.9257,3.2406
2023-02-13,21773.97,543.92,651.8836,2.9939
2023-02-14,22199.84,786.31,664.8179,2.9947
2023-02-15,24324.05,2332.72,756.2671,3.1091
2023-02-16,23517.72,1744.75,817.1971,3.4748
2023-02-17,24569.97,1681.74,900.8157,3.6663
2023-02-18,24631.95,447.0,908.9,3.6899
2023-02-19,24271.76,999.43,930.9786,3.8356
2023-02-20,24842.2,1280.4,984.57,3.9633
2023-02-21,24452.16,1101.66,1020.0836,4.1718
2023-02-22,24182.21,901.36,1028.3129,4.2524
2023-02-23,23940.2,991.59,1004.6129,4.1963
2023-02-24,23185.29,1291.16,1062.0414,4.5807
2023-02-25,23157.07,497.13,1075.655,4.645
2023-02-26,23554.85,630.81,1087.8557,4.6184
2023-02-27,23492.09,791.22,1105.52,4.7059
2023-02-28,23141.57,579.03,1090.7143,4.7132
2023-03-01,23628.97,979.97,994.0893,4.2071
2023-03-02,23465.32,601.03,912.395,3.8883
2023-03-03,22354.34,1505.82,899.8293,4.0253
2023-03-04,22346.57,252.92,885.9664,3.9647
2023-03-05,22430.24,472.87,848.355,3.7822
2023-03-06,22410.0,344.19,781.4829,3.4872
2023-03-07,22197.96,630.91,747.8579,3.369
2023-03-08,21705.44,707.0,733.975,3.3815
2023-03-09,20362.22,1792.27,791.1664,3.8855
2023-03-10,20150.69,818.69,757.4186,3.7588
2023-03-11,20455.73,921.48,787.7293,3.8509
2023-03-12,21997.11,1879.4,876.9143,3.9865
2023-03-13,24113.48,2686.12,1012.2643,4.1979
2023-03-14,24670.41,2410.45,1143.08,4.6334
2023-03-15,24285.66,1300.02,1165.9407,4.8009
2023-03-16,24998.78,1044.4,1197.61,4.7907
2023-03-17,27395.13,2866.84,1294.8257,4.7265
2023-03-18,26907.49,1146.85,1358.6779,5.0494
2023-03-19,27972.87,1562.88,1436.5357,5.1355
2023-03-20,27717.01,1347.53,1508.2029,5.4414
2023-03-21,28105.47,1135.45,1544.2414,5.4945
2023-03-22,27250.97,2266.25,1655.6164,6.0754
2023-03-23,28295.41,1645.0,1645.0971,5.814
2023-03-24,27454.47,1374.3,1684.7836,6.1366
2023-03-25,27462.95,631.24,1664.0521,6.0593
2023-03-26,27968.05,776.64,1585.2836,5.6682
2023-03-27,27124.91,1515.72,1501.6836,5.5362
2023-03-28,27261.07,888.22,1392.9529,5.1097
2023-03-29,28348.6,1409.9,1400.8014,4.9413
2023-03-30,28028.53,1498.68,1433.25,5.1135
2023-03-31,28465.36,1144.98,1310.26,4.603
2023-04-01,28452.73,599.44,1271.1593,4.4676
2023-04-02,28171.87,673.57,1207.6371,4.2867
2023-04-03,27800.0,1300.75,1204.2957,4.332
2023-04-04,28165.47,781.65,1179.0243,4.1861
2023-04-05,28170.01,969.9,1086.4279,3.8567
2023-04-06,28033.82,471.05,1002.5743,3.5763
2023-04-07,27906.33,333.06,928.2,3.3261
2023-04-08,27938.38,295.97,904.2521,3.2366
2023-04-09,28323.76,730.0,900.9207,3.1808
2023-04-10,29637.34,1600.0,906.9407,3.0601
2023-04-11,30200.42,960.0,912.0679,3.0201
2023-04-12,29888.07,848.6,871.975,2.9175
2023-04-13,30373.84,740.41,817.8129,2.6925
2023-04-14,30466.93,1034.0,809.8857,2.6582
2023-04-15,30295.09,393.6,795.1829,2.6248
2023-04-16,30304.65,429.99,777.7843,2.5666
2023-04-17,29430.27,1075.41,761.6886,2.5881
2023-04-18,30380.01,1388.22,805.015,2.6498
2023-04-19,28797.1,1893.53,870.9886,3.0246
2023-04-20,28243.65,1078.3,914.3636,3.2374
2023-04-21,27262.84,1249.02,979.7893,3.5939
2023-04-22,27816.85,742.37,1011.675,3.6369
2023-04-23,27590.6,505.6,995.6464,3.6086
2023-04-24,27510.93,1057.18,956.8736,3.4782
2023-04-25,28300.79,1207.99,974.5871,3.4437
2023-04-26,28415.29,2801.0,1114.0443,3.9206
2023-04-27,29472.77,1511.14,1169.0964,3.9667
2023-04-28,29311.7,708.54,1145.8493,3.9092
2023-04-29,29230.45,417.88,1147.5836,3.926
2023-04-30,29233.21,889.8,1180.4271,4.038
2023-05-01,28068.26,1670.39,1222.9257,4.357
2023-05-02,28669.86,1007.88,1195.7586,4.1708
2023-05-03,29026.16,1152.97,1142.8614,3.9373
2023-05-04,28838.16,716.19,1116.9964,3.8733
2023-05-05,29505.61,877.0,1090.4236,3.6956
2023-05-06,28848.2,1520.0,1145.9686,3.9724
2023-05-07,28430.1,743.06,1162.93,4.0905
2023-05-08,27668.79,1369.01,1185.2036,4.2835
2023-05-09,27628.27,465.0,1132.1329,4.0977
2023-05-10,27598.75,1554.42,1043.0914,3.7795
2023-05-11,26968.62,928.09,1001.445,3.7134
2023-05-12,26795.01,1279.66,1042.2393,3.8897
2023-05-13,26775.28,353.42,1037.635,3.8753
2023-05-14,26917.62,639.47,1019.7543,3.7884
2023-05-15,27162.14,937.59,967.4114,3.5616
2023-05-16,27033.84,444.78,927.19,3.4297
2023-05-17,27405.61,955.29,913.07,3.3317
2023-05-18,26821.28,1124.13,942.2086,3.5129
2023-05-19,26880.26,553.6,919.1086,3.4193
2023-05-20,27102.43,324.89,833.7436,3.0763
2023-05-21,26747.78,611.52,824.3479,3.0819
2023-05-22,26849.27,561.68,766.6814,2.8555
2023-05-23,27219.61,697.72,783.3043,2.8777
2023-05-24,26329.01,1139.11,753.6393,2.8624
2023-05-25,26473.79,760.09,741.6393,2.8014
2023-05-26,26705.92,604.92,693.4436,2.5966
2023-05-27,26854.27,344.0,692.7707,2.5797
2023-05-28,28065.0,1496.96,754.02,2.6867
2023-05-29,27736.4,922.54,752.945,2.7146
2023-05-30,27694.4,484.59,755.7886,2.729
2023-05-31,27210.35,996.5,758.7321,2.7884
2023-06-01,26817.93,744.95,731.6479,2.7282
2023-06-02,27242.59,795.0,748.8907,2.749
2023-06-03,27069.22,418.36,755.5671,2.7912
2023-06-04,27115.21,504.02,747.8886,2.7582
2023-06-05,25728.2,1741.33,832.1493,3.2344
2023-06-06,27230.08,2004.31,925.4771,3.3987
2023-06-07,26339.34,1266.76,934.595,3.5483
2023-06-08,26498.61,600.0,923.16,3.4838
2023-06-09,26477.81,513.42,916.6243,3.4619
2023-06-10,25841.21,1175.87,976.0436,3.7771
2023-06-11,25925.55,572.18,909.9879,3.51
2023-06-12,25905.19,504.37,880.1186,3.3975
2023-06-13,25934.25,720.64,896.9793,3.4587
2023-06-14,25128.6,1277.44,917.0464,3.6494
2023-06-15,25598.49,959.01,932.3364,3.6422
2023-06-16,26345.0,1342.44,971.4393,3.6874
2023-06-17,26516.99,658.99,988.6271,3.7283
2023-06-18,26339.97,444.15,984.3507,3.7371
2023-06-19,26844.35,811.48,917.9329,3.4195
2023-06-20,28307.99,1750.74,899.8207,3.1787
2023-06-21,29993.89,2542.01,990.91,3.3037
2023-06-22,29884.92,974.39,1017.6521,3.4052
2023-06-23,30688.5,1631.94,1097.5464,3.5764
2023-06-24,30527.43,550.0,1052.8414,3.4488
2023-06-25,30462.66,768.52,1066.8657,3.5022
2023-06-26,30267.99,736.0,1083.4107,3.5794
2023-06-27,30692.44,768.8,1086.8507,3.5411
2023-06-28,30077.41,850.94,1056.3864,3.5122
2023-06-29,30447.31,794.0,1044.6,3.4308
2023-06-30,30472.0,1782.0,1075.9971,3.5311
2023-07-01,30585.9,341.03,1053.2857,3.4437
2023-07-02,30617.03,636.0,1066.9893,3.485
2023-07-03,31156.2,809.73,1066.8643,3.4242
2023-07-04,30766.51,730.69,994.0036,3.2308
2023-07-05,30504.81,678.07,860.865,2.8221
2023-07-06,29895.43,1649.55,909.0907,3.0409
2023-07-07,30344.7,747.98,845.9507,2.7878
2023-07-08,30284.63,342.34,831.1179,2.7444
2023-07-09,30160.71,384.4,803.6807,2.6647
2023-07-10,30411.57,1095.78,829.3793,2.7272
2023-07-11,30622.1,513.63,811.1529,2.6489
2023-07-12,30380.0,773.25,805.6036,2.6518
2023-07-13,31454.23,1553.2,859.8321,2.7336
2023-07-14,30312.01,1730.0,856.1179,2.8244
2023-07-15,30289.52,190.9,845.3943,2.791
2023-07-16,30231.99,377.17,826.9064,2.7352
2023-07-17,30138.0,677.76,817.48,2.7125
2023-07-18,29859.13,727.78,817.2721,2.7371
2023-07-19,29909.21,427.13,799.3479,2.6726
2023-07-20,29800.0,846.5,741.9871,2.4899
2023-07-21,29901.72,335.36,712.5143,2.3829
2023-07-22,29794.0,373.9,714.7686,2.399
2023-07-23,30083.75,620.0,731.5971,2.4319
2023-07-24,29176.5,1237.68,741.7329,2.5422
2023-07-25,29228.91,328.35,728.4986,2.4924
2023-07-26,29351.96,593.06,715.6279,2.4381
2023-07-27,29222.78,483.64,639.2307,2.1874
2023-07-28,29314.14,419.1,545.595,1.8612
2023-07-29,29352.9,150.74,542.7264,1.849
2023-07-30,29281.09,415.76,545.4829,1.8629
2023-07-31,29232.25,428.2,527.6571,1.8051
2023-08-01,29705.99,1153.55,558.0693,1.8786
2023-08-02,29186.01,1120.0,607.56,2.0817
2023-08-03,29193.64,465.33,580.3336,1.9879
2023-08-04,29113.99,525.54,593.9179,2.04
2023-08-05,29072.13,173.59,579.61,1.9937
2023-08-06,29088.42,213.21,550.5536,1.8927
2023-08-07,29211.06,575.75,503.2729,1.7229
2023-08-08,29770.42,1097.55,558.2157,1.8751
2023-08-09,29581.99,783.33,571.8064,1.933
2023-08-10,29455.75,417.8,567.1036,1.9253
2023-08-11,29426.03,312.07,559.4586,1.9012
2023-08-12,29430.17,99.79,555.8193,1.8886
2023-08-13,29303.84,202.33,540.5743,1.8447
2023-08-14,29430.93,592.87,552.3364,1.8767
2023-08-15,29200.0,439.66,501.3443,1.7169
2023-08-16,28730.51,536.77,459.685,1.6
2023-08-17,26623.41,3617.48,684.8386,2.5723
2023-08-18,26054.0,1213.6,733.9857,2.8172
2023-08-19,26100.01,479.91,755.8657,2.896
2023-08-20,26189.99,327.95,764.0614,2.9174
2023-08-21,26126.92,446.42,754.8236,2.8891
2023-08-22,26056.0,839.42,736.3857,2.8262
2023-08-23,26432.72,1006.45,752.3229,2.8462
2023-08-24,26180.05,713.87,773.4707,2.9544
2023-08-25,26060.01,536.9,789.53,3.0297
2023-08-26,26017.37,139.85,792.3914,3.0456
2023-08-27,26101.77,216.12,793.3764,3.0396
2023-08-28,26120.0,389.49,778.8493,2.9818
2023-08-29,27716.34,2220.85,906.0771,3.2691
2023-08-30,27299.99,751.33,921.4029,3.3751
2023-08-31,25940.78,1932.5,801.0471,3.088
2023-09-01,25805.05,822.25,773.0936,2.9959
2023-09-02,25869.51,235.03,755.6021,2.9208
2023-09-03,25971.21,335.0,756.1057,2.9113
2023-09-04,25826.02,476.81,758.2764,2.9361
2023-09-05,25792.1,352.87,723.5229,2.8052
2023-09-06,25759.95,667.49,699.3114,2.7147
2023-09-07,26255.0,827.76,707.4464,2.6945
2023-09-08,25910.5,798.24,726.1136,2.8024
2023-09-09,25901.61,148.45,726.7279,2.8057
2023-09-10,25841.61,463.09,744.3686,2.8805
2023-09-11,25162.52,999.69,787.9543,3.1315
2023-09-12,25840.1,1435.52,731.8593,2.8323
2023-09-13,26222.0,641.05,723.9821,2.761
2023-09-14,26522.73,733.72,638.355,2.4068
2023-09-15,26600.0,664.0,627.0514,2.3573
2023-09-16,26559.67,332.0,633.9779,2.387
2023-09-17,26527.51,224.25,626.0671,2.3601
2023-09-18,26762.51,1031.65,665.6986,2.4874
2023-09-19,27210.26,815.78,698.7636,2.568
2023-09-20,27125.0,588.63,693.1307,2.5553
2023-09-21,26568.08,781.9,689.855,2.5966
2023-09-22,26580.14,274.61,652.4529,2.4547
2023-09-23,26575.96,123.81,650.6929,2.4484
2023-09-24,26248.38,616.46,661.6479,2.5207
2023-09-25,26304.81,455.69,622.7907,2.3676
2023-09-26,26221.67,309.12,542.3336,2.0683
2023-09-27,26372.99,737.94,549.2543,2.0826
2023-09-28,27021.39,966.08,565.8514,2.0941
2023-09-29,26906.96,579.73,559.8321,2.0806
2023-09-30,26962.56,208.68,551.0236,2.0437
2023-10-01,27992.57,1111.42,614.3929,2.1948
2023-10-02,27494.51,1298.56,633.4579,2.3039
2023-10-03,27426.46,516.02,612.0464,2.2316
2023-10-04,27778.57,637.72,615.5529,2.2159
2023-10-05,27410.39,768.39,614.5879,2.2422
2023-10-06,27931.09,1119.06,674.9057,2.4163
2023-10-07,27956.67,187.59,679.4614,2.4304
2023-10-08,27917.05,407.64,664.5457,2.3804
2023-10-09,27590.12,727.93,683.9914,2.4791
2023-10-10,27390.12,437.0,693.1257,2.5306
2023-10-11,26875.52,938.73,707.4679,2.6324
2023-10-12,26759.63,392.04,666.465,2.4906
2023-10-13,26862.0,445.0,656.8414,2.4452
2023-10-14,26852.48,200.58,656.2629,2.444
2023-10-15,27154.15,485.08,611.5243,2.252
2023-10-16,28500.78,2887.34,725.0086,2.5438
2023-10-17,28395.91,544.33,727.0307,2.5603
2023-10-18,28320.0,839.49,741.4429,2.6181
2023-10-19,28713.71,816.23,744.86,2.5941
2023-10-20,29669.04,1629.26,781.3029,2.6334
2023-10-21,29909.8,915.22,833.2764,2.786
2023-10-22,29992.46,608.0,847.5879,2.826
2023-10-23,33069.99,4858.31,1142.615,3.4551
2023-10-24,33922.73,2447.66,1286.2336,3.7917
2023-10-25,34496.05,1453.8,1323.0243,3.8353
2023-10-26,34151.66,1073.13,1371.6736,4.0164
2023-10-27,33892.02,854.05,1400.8914,4.1334
2023-10-28,34081.0,633.33,1431.8021,4.2012
2023-10-29,34525.89,820.11,1455.7329,4.2164
2023-10-30,34474.73,793.16,1306.1486,3.7887
2023-10-31,34639.77,695.49,1316.9457,3.8018
2023-11-01,35421.43,1484.61,1363.0257,3.848
2023-11-02,34941.59,1684.99,1425.08,4.0785
2023-11-03,34716.78,826.5,1367.74,3.9397
2023-11-04,35062.07,669.82,1350.2114,3.8509
2023-11-05,35011.88,932.0,1373.3543,3.9225
2023-11-06,35046.09,550.43,1065.6486,3.0407
2023-11-07,35399.12,1364.94,988.3114,2.7919
2023-11-08,35624.72,1006.0,956.3257,2.6844
2023-11-09,36701.09,2438.19,1053.83,2.8714
2023-11-10,37301.63,1201.29,1078.6329,2.8917
2023-11-11,37130.0,741.33,1086.3471,2.9258
2023-11-12,37064.13,491.12,1062.8479,2.8676
2023-11-13,36462.93,1084.99,1083.6929,2.972
2023-11-14,35551.19,1944.0,1172.8721,3.2991
2023-11-15,37858.2,2620.0,1253.9714,3.3123
2023-11-16,36163.51,2429.54,1307.1536,3.6146
2023-11-17,36613.92,938.9,1315.1821,3.592
2023-11-18,36568.1,666.91,1314.9743,3.596
2023-11-19,37359.86,1115.98,1328.1157,3.5549
2023-11-20,37448.78,1073.0,1365.4421,3.6462
2023-11-21,35741.65,1914.44,1404.6921,3.9301
2023-11-22,37408.34,2229.09,1492.0557,3.9886
2023-11-23,37294.28,783.44,1373.8593,3.6838
2023-11-24,37713.57,1162.49,1371.0879,3.6355
2023-11-25,37780.67,296.9,1339.3429,3.545
2023-11-26,37447.43,664.63,1351.7364,3.6097
2023-11-27,37242.7,862.23,1335.825,3.5868
2023-11-28,37818.87,1508.59,1304.7243,3.4499
2023-11-29,37854.64,880.0,1180.4386,3.1183
2023-11-30,37723.96,645.85,1053.0321,2.7914
2023-12-01,38682.52,1383.14,1084.7636,2.8043
2023-12-02,39450.35,1075.53,1113.9507,2.8237
2023-12-03,39972.26,975.14,1103.8907,2.7616
2023-12-04,41991.1,2447.74,1202.0864,2.8627
2023-12-05,44073.32,3074.0,1284.9121,2.9154
2023-12-06,43762.69,961.93,1194.4007,2.7293
2023-12-07,43273.14,1226.23,1226.0286,2.8332
2023-12-08,44170.99,1618.9,1258.6293,2.8494
2023-12-09,43713.6,773.51,1292.6729,2.9571
2023-12-10,43789.51,486.0,1279.9136,2.9229
2023-12-11,41253.4,3582.5,1474.2186,3.5736
2023-12-12,41492.39,1424.12,1468.185,3.5384
2023-12-13,42869.03,2920.2,1613.9136,3.7648
2023-12-14,43022.26,2020.0,1712.0671,3.9795
2023-12-15,41940.3,1414.81,1714.3293,4.0875
2023-12-16,42278.03,1119.43,1717.465,4.0623
2023-12-17,41374.65,1172.07,1731.5314,4.185
2023-12-18,42657.8,2214.88,1714.8986,4.0201
2023-12-19,42275.99,1685.9,1615.7486,3.8219
2023-12-20,43668.93,2077.0,1695.3964,3.8824
2023-12-21,43861.8,955.63,1676.0679,3.8212
2023-12-22,43969.04,985.72,1630.8407,3.7091
2023-12-23,43702.16,697.58,1625.4171,3.7193
2023-12-24,42991.5,1446.0,1693.9886,3.9403
2023-12-25,43576.13,1081.89,1515.3736,3.4775
2023-12-26,42508.93,1955.08,1553.2993,3.6541
2023-12-27,43428.85,1578.31,1457.45,3.3559
2023-12-28,42563.76,1545.78,1423.5771,3.3446
2023-12-29,42066.95,1811.0,1451.8764,3.4513
2023-12-30,42140.28,1092.02,1449.9186,3.4407
2023-12-31,42283.58,933.16,1432.8536,3.3887
2024-01-01,44179.55,2003.33,1417.7429,3.209
2024-01-02,44946.91,1731.29,1420.985,3.1615
2024-01-03,42845.23,4750.0,1611.9136,3.7622
2024-01-04,44151.1,2115.81,1694.7836,3.8386
2024-01-05,44145.11,1907.46,1760.6221,3.9883
2024-01-06,43968.32,817.37,1769.1786,4.0238
2024-01-07,43929.02,908.5,1730.7857,3.94
2024-01-08,46951.04,4073.99,1944.5071,4.1416
2024-01-09,46110.0,3223.33,2035.0964,4.4136
2024-01-10,46653.99,3395.57,2164.9007,4.6403
2024-01-11,46339.16,3363.42,2294.7321,4.952
2024-01-12,42782.73,5015.53,2523.6271,5.8987
2024-01-13,42847.99,820.88,2504.26,5.8445
2024-01-14,41732.35,1359.0,2534.6771,6.0737
2024-01-15,42511.1,1682.38,2511.7521,5.9085
2024-01-16,43137.95,1528.01,2497.2321,5.7889
2024-01-17,42776.1,997.31,2229.1829,5.2113
2024-01-18,41327.5,2246.72,2238.5336,5.4166
2024-01-19,41659.03,1916.86,2239.205,5.3751
2024-01-20,41696.04,416.26,2210.5543,5.3016
2024-01-21,41580.33,380.41,2172.8336,5.2256
2024-01-22,39568.02,2258.07,2043.125,5.1636
2024-01-23,39897.6,1621.74,1928.7257,4.8342
2024-01-24,40084.88,1070.81,1762.6714,4.3973
2024-01-25,39961.09,750.24,1576.0157,3.9439
2024-01-26,41823.51,2424.3,1390.9279,3.3257
2024-01-27,42120.63,805.66,1389.8407,3.2997
2024-01-28,42031.06,1221.87,1380.0457,3.2834
2024-01-29,43302.7,1528.12,1369.0271,3.1615
2024-01-30,42941.1,1198.37,1345.4814,3.1333
2024-01-31,42580.0,1468.27,1379.1214,3.2389
2024-02-01,43082.94,1400.85,1318.7021,3.0608
2024-02-02,43200.0,941.21,1249.0129,2.8912
2024-02-03,43011.09,500.01,1254.995,2.9178
2024-02-04,42582.88,897.04,1291.8971,3.0338
2024-02-05,42708.7,1311.66,1224.2964,2.8666
2024-02-06,43098.95,825.98,1167.4564,2.7088
2024-02-07,44349.6,1608.5,1205.8629,2.719
2024-02-08,45288.65,1283.2,1243.9314,2.7467
2024-02-09,47132.77,2957.88,1282.0443,2.7201
2024-02-10,47751.09,1370.0,1322.3543,2.7693
2024-02-11,48299.99,1035.5,1309.0421,2.7102
2024-02-12,49917.27,2624.81,1387.3771,2.7794
2024-02-13,49699.59,2067.66,1449.4693,2.9165
2024-02-14,51795.17,2818.7,1545.9286,2.9847
2024-02-15,51880.0,1502.62,1553.1979,2.9938
2024-02-16,52124.11,1006.08,1557.8314,2.9887
2024-02-17,51642.64,1537.82,1631.9607,3.1601
2024-02-18,52137.67,1213.72,1654.5807,3.1735
2024-02-19,51774.73,811.77,1618.8743,3.1268
2024-02-20,52258.82,2224.63,1718.7779,3.289
2024-02-21,51849.39,1741.8,1728.2993,3.3333
2024-02-22,51288.42,1125.0,1716.9993,3.3477
2024-02-23,50744.15,1027.54,1579.1179,3.1119
2024-02-24,51568.22,1113.0,1560.7607,3.0266
2024-02-25,51728.85,678.75,1535.2786,2.9679
2024-02-26,54476.47,4008.56,1634.1179,2.9997
2024-02-27,57037.34,3138.02,1710.5721,2.999
2024-02-28,62432.1,7308.15,2031.2471,3.2535
2024-02-29,61130.98,3311.65,2160.4636,3.5342
2024-03-01,62387.9,2337.23,2255.5457,3.6154
2024-03-02,61987.28,872.07,2207.9921,3.562
2024-03-03,63113.97,1911.88,2257.8607,3.5774
2024-03-04,68245.71,6199.0,2642.6629,3.8723
2024-03-05,63724.01,9995.0,3197.6893,5.018
2024-03-06,66074.04,4861.96,3420.5579,5.1769
2024-03-07,66823.17,2429.0,3513.7007,5.2582
2024-03-08,68124.19,3907.34,3719.4007,5.4597
2024-03-09,68313.27,680.0,3688.4721,5.3993
2024-03-10,68955.88,1792.86,3768.0514,5.4644
2024-03-11,72078.1,5775.04,3894.2286,5.4028
2024-03-12,71452.01,4379.18,3982.8829,5.5742
2024-03-13,73072.41,2316.94,3626.3679,4.9627
2024-03-14,71388.94,5222.0,3762.8214,5.2709
2024-03-15,69499.85,6819.71,4082.9986,5.8748
2024-03-16,65300.63,5263.0,4396.6364,6.7329
2024-03-17,68393.48,4371.4,4572.3164,6.6853
2024-03-18,67609.99,2390.8,4300.3021,6.3605
2024-03-19,61937.4,6569.11,4055.5957,6.5479
2024-03-20,67840.51,7325.0,4231.5271,6.2375
2024-03-21,65501.27,3711.46,4323.1314,6.6001
2024-03-22,63796.64,4389.62,4357.58,6.8304
2024-03-23,63990.01,2999.0,4523.2229,7.0686
2024-03-24,67209.99,3856.4,4670.6186,6.9493
2024-03-25,69880.01,4764.94,4598.4686,6.5805
2024-03-26,69988.0,2281.1,4448.6057,6.3562
2024-03-27,69469.99,3410.36,4526.7071,6.5161
2024-03-28,70780.6,2648.44,4342.8814,6.1357
2024-03-29,69850.54,1907.16,3991.985,5.715
2024-03-30,69582.18,781.1,3671.8493,5.277
2024-03-31,71280.01,1803.01,3488.3929,4.8939
2024-04-01,69649.8,3225.37,3548.005,5.0941
2024-04-02,65463.99,5124.23,3444.7993,5.2621
2024-04-03,65963.28,2410.56,3093.7679,4.6901
2024-04-04,68487.79,4245.39,3131.9057,4.5729
2024-04-05,67820.62,2804.11,3018.655,4.4509
2024-04-06,68896.0,2244.17,2964.7386,4.3032
2024-04-07,69360.39,1502.29,2796.5879,4.032
2024-04-08,71620.0,3754.75,2724.4314,3.804
2024-04-09,69146.0,3548.19,2814.9379,4.071
2024-04-10,70631.08,3654.08,2832.3464,4.0101
2024-04-11,70006.23,1738.68,2767.3636,3.953
2024-04-12,67116.52,6140.6,3069.7521,4.5738
2024-04-13,63924.51,7268.43,3533.1329,5.527
2024-04-14,65661.84,3706.0,3669.0607,5.5878
2024-04-15,63419.99,4592.67,3766.725,5.9393
2024-04-16,63793.39,2765.0,3598.2086,5.6404
2024-04-17,61277.37,4820.84,3770.3714,6.153
2024-04-18,63470.08,3313.74,3703.825,5.8355
2024-04-19,63818.01,5849.99,3921.3879,6.1446
2024-04-20,64940.59,2328.93,3927.4421,6.0477
2024-04-21,64941.15,1458.06,3924.2829,6.0428
2024-04-22,66819.32,2732.35,3851.2543,5.7637
2024-04-23,66414.0,1417.2,3699.0407,5.5697
2024-04-24,64289.59,3464.37,3685.49,5.7326
2024-04-25,64498.34,2503.94,3740.1514,5.7988
2024-04-26,63770.01,1522.53,3410.2893,5.3478
2024-04-27,63461.98,1532.17,3000.5564,4.7281
2024-04-28,63118.62,1589.0,2849.3421,4.5143
2024-04-29,63866.0,2462.82,2697.21,4.2232
2024-04-30,60672.0,5542.4,2895.5957,4.7725
2024-05-01,58364.97,4288.81,2857.5936,4.8961
2024-05-02,59060.61,2713.16,2814.695,4.7658
2024-05-03,62882.01,4521.68,2719.8157,4.3253
2024-05-04,63892.04,1998.97,2696.2471,4.22
2024-05-05,64012.0,1823.83,2722.3736,4.2529
2024-05-06,63165.19,2800.0,2727.2057,4.3176
2024-05-07,62312.08,2161.41,2780.3636,4.462
2024-05-08,61193.03,2132.22,2685.21,4.3881
2024-05-09,63074.01,2799.03,2706.2879,4.2907
2024-05-10,60799.99,3282.01,2831.965,4.6578
2024-05-11,60825.99,1027.91,2795.9464,4.5966
2024-05-12,61483.99,1278.0,2773.7321,4.5113
2024-05-13,62940.08,2700.79,2790.73,4.4339
2024-05-14,61577.49,1975.59,2535.9579,4.1183
2024-05-15,66206.5,5124.69,2595.6636,3.9206
2024-05-16,65235.21,2149.24,2555.3836,3.9172
2024-05-17,67024.0,2344.82,2399.8936,3.5806
2024-05-18,66915.2,800.01,2314.2536,3.4585
2024-05-19,66274.01,1842.75,2315.605,3.494
2024-05-20,71446.62,5455.25,2505.2657,3.5065
2024-05-21,70148.34,2816.06,2552.0264,3.638
2024-05-22,69166.62,1823.81,2529.9971,3.6578
2024-05-23,67969.65,3783.96,2600.3493,3.8258
2024-05-24,68549.99,2649.88,2555.1971,3.7275
2024-05-25,69290.57,1110.0,2561.0607,3.6961
2024-05-26,68507.67,1434.22,2572.2193,3.7546
2024-05-27,69436.43,2437.56,2553.4171,3.6773
2024-05-28,68398.39,2313.9,2577.5821,3.7685
2024-05-29,67652.42,1811.03,2340.8921,3.4602
2024-05-30,68352.17,2372.0,2356.8036,3.448
2024-05-31,67540.01,2374.1,2358.895,3.4926
2024-06-01,67766.85,471.56,2335.4343,3.4463
2024-06-02,67765.63,1202.53,2289.7043,3.3789
2024-06-03,68809.9,2675.52,2091.1521,3.039
2024-06-04,70537.84,2496.13,2068.3,2.9322
2024-06-05,71108.0,1374.34,2036.195,2.8635
2024-06-06,70799.06,1582.36,1878.9379,2.6539
2024-06-07,69355.6,3577.02,1945.1621,2.8046
2024-06-08,69310.46,414.18,1895.4607,2.7347
2024-06-09,69648.14,726.9,1844.9379,2.6489
2024-06-10,69540.0,1023.65,1743.9443,2.5078
2024-06-11,67314.24,3539.01,1831.4521,2.7207
2024-06-12,68263.99,3094.0,1923.0929,2.8171
2024-06-13,66773.01,2197.52,1910.63,2.8614
2024-06-14,66043.99,2292.24,1904.7829,2.8841
2024-06-15,66228.25,621.38,1915.4843,2.8922
2024-06-16,66676.87,964.2,1898.4607,2.8473
2024-06-17,66504.33,2168.81,1862.2671,2.8002
2024-06-18,65175.32,2528.23,1864.56,2.8608
2024-06-19,64974.37,1061.54,1842.2171,2.8353
2024-06-20,64869.99,1923.79,1866.605,2.8775
2024-06-21,64143.56,1687.31,1731.6257,2.6996
2024-06-22,64262.01,602.99,1745.1121,2.7156
2024-06-23,63210.01,1342.68,1789.0964,2.8304
2024-06-24,60293.3,4967.8,2070.8214,3.4346
2024-06-25,61806.01,2162.94,1972.5307,3.1915
2024-06-26,60864.99,1775.81,1878.3743,3.0861
2024-06-27,61706.47,1782.59,1848.7364,2.996
2024-06-28,60427.84,2162.31,1839.4557,3.0441
2024-06-29,60986.68,840.23,1855.0879,3.0418
2024-06-30,62772.01,2346.55,1953.8271,3.1126
2024-07-01,62899.99,1364.56,1896.3807,3.0149
2024-07-02,62135.47,1482.55,1821.6893,2.9318
2024-07-03,60208.58,2885.94,1952.0036,3.2421
2024-07-04,57050.01,3727.19,2080.8179,3.6474
2024-07-05,56628.79,4060.07,2250.3007,3.9738
2024-07-06,58230.13,2457.0,2382.73,4.0919
2024-07-07,55857.81,2725.09,2481.4736,4.4425
2024-07-08,56714.62,3976.57,2410.6714,4.2505
2024-07-09,58050.0,2006.55,2399.5007,4.1335
2024-07-10,57725.85,2312.21,2437.815,4.2231
2024-07-11,57339.89,2600.0,2496.2014,4.3533
2024-07-12,57889.1,1984.21,2483.48,4.2901
2024-07-13,59204.02,2093.37,2572.99,4.346
2024-07-14,60797.91,2226.68,2564.4279,4.218
2024-07-15,64724.14,4267.7,2771.795,4.2825
2024-07-16,65043.99,3015.73,2881.3079,4.4298
2024-07-17,64087.99,2274.63,2837.6429,4.4277
2024-07-18,63987.92,1894.82,2706.7593,4.2301
2024-07-19,66660.0,4085.33,2708.5636,4.0633
2024-07-20,67139.96,1375.54,2631.3164,3.9192
2024-07-21,68165.34,2589.66,2621.6429,3.846
2024-07-22,67532.01,1914.58,2474.3579,3.664
2024-07-23,65936.01,2309.9,2496.0257,3.7855
2024-07-24,65376.0,1991.01,2473.0829,3.7829
2024-07-25,65799.95,2718.79,2481.5679,3.7714
2024-07-26,67907.99,2477.37,2516.7936,3.7062
2024-07-27,67896.5,2749.99,2563.695,3.7759
2024-07-28,68249.88,1251.77,2494.0586,3.6543
2024-07-29,66784.69,3651.99,2450.0793,3.6686
2024-07-30,66188.0,1697.33,2355.9079,3.5594
2024-07-31,64628.0,2319.24,2359.0943,3.6503
2024-08-01,65354.02,3357.78,2463.5914,3.7696
2024-08-02,61498.33,4366.13,2483.6486,4.0386
2024-08-03,60697.99,2348.22,2553.1257,4.2063
2024-08-04,58161.0,3994.86,2653.4971,4.5623
2024-08-05,54018.81,9305.59,3181.4264,5.8895
2024-08-06,56022.01,3090.99,3237.2186,5.7785
2024-08-07,55134.16,3177.43,3321.9629,6.0252
2024-08-08,61685.99,8015.14,3700.2736,5.9986
2024-08-09,60837.99,2209.37,3681.1307,6.0507
2024-08-10,60923.51,1228.58,3572.4586,5.8638
2024-08-11,58712.59,3571.27,3738.1371,6.3668
2024-08-12,59346.64,3068.88,3696.4864,6.2286
2024-08-13,60587.15,3185.22,3802.7643,6.2765
2024-08-14,58683.39,3366.82,3877.5914,6.6076
2024-08-15,57541.06,3770.84,3907.0957,6.7901
2024-08-16,58874.6,2719.14,3789.4536,6.4365
2024-08-17,59491.99,914.95,3687.0771,6.1976
2024-08-18,58427.35,1876.07,3535.735,6.0515
2024-08-19,59438.5,1830.33,3001.7879,5.0502
2024-08-20,59013.8,2851.77,2984.7007,5.0576
2024-08-21,61156.03,3037.46,2974.7029,4.8641
2024-08-22,60375.84,1675.13,2521.845,4.1769
2024-08-23,64037.24,4612.86,2693.5229,4.2062
2024-08-24,64157.01,963.5,2674.5886,4.1688
2024-08-25,64220.0,1226.73,2507.1214,3.904
2024-08-26,62834.0,1681.0,2407.9871,3.8323
2024-08-27,59415.0,5177.99,2550.3279,4.2924
2024-08-28,59034.9,2374.98,2479.4821,4.2
2024-08-29,59359.01,2453.9,2385.415,4.0186
2024-08-30,59123.99,2242.97,2351.4029,3.9771
2024-08-31,58973.99,718.38,2337.3621,3.9634
2024-09-01,57301.86,1875.59,2337.3279,4.079
2024-09-02,59132.13,2297.69,2370.7107,4.0092
2024-09-03,57487.73,2394.65,2338.0593,4.0671
2024-09-04,57970.9,2913.0,2329.1693,4.0178
2024-09-05,56180.0,2683.42,2401.19,4.2741
2024-09-06,53962.97,4458.0,2390.1286,4.4292
2024-09-07,54160.86,1104.46,2400.1971,4.4316
2024-09-08,54869.95,1688.99,2433.2157,4.4345
2024-09-09,57042.0,3496.04,2562.8614,4.4929
2024-09-10,57635.99,1657.96,2311.4307,4.0104
2024-09-11,57338.0,2436.52,2315.8264,4.0389
2024-09-12,58132.32,1264.0,2230.8336,3.8375
2024-09-13,60498.0,2992.38,2284.3629,3.7759
2024-09-14,59993.03,1210.45,2319.5107,3.8663
2024-09-15,59132.0,1704.75,2307.3079,3.902
2024-09-16,58213.99,1717.4,2265.8586,3.8923
2024-09-17,60313.99,3709.99,2359.8114,3.9125
2024-09-18,61759.99,2611.44,2338.2714,3.7861
2024-09-19,62947.99,2295.0,2310.5271,3.6705
2024-09-20,63201.05,1783.32,2119.4786,3.3535
2024-09-21,63348.96,801.9,2097.8671,3.3116
2024-09-22,63578.76,1642.07,2094.5157,3.2944
2024-09-23,63339.99,2207.13,2002.4507,3.1614
2024-09-24,64262.7,1988.0,2026.025,3.1527
2024-09-25,63152.01,1870.91,1985.6243,3.1442
2024-09-26,65173.99,3169.0,2121.6957,3.2554
2024-09-27,65769.95,1678.1,2027.8186,3.0832
2024-09-28,65858.0,837.77,2001.1986,3.0387
2024-09-29,65602.01,644.12,1925.4393,2.935
2024-09-30,63327.59,2762.5,2000.0893,3.1583
2024-10-01,60805.78,3966.63,2018.4207,3.3195
2024-10-02,60649.28,2390.31,2002.6257,3.302
2024-10-03,60752.71,1649.08,1956.4886,3.2204
2024-10-04,62086.0,2024.95,1973.7479,3.1791
2024-10-05,62058.0,681.3,1965.1336,3.1666
2024-10-06,62819.91,1176.03,1931.845,3.0752
2024-10-07,62224.0,2350.19,1942.0636,3.1211
2024-10-08,62160.49,1339.69,1895.7557,3.0498
2024-10-09,60636.02,2242.75,1922.3157,3.1703
2024-10-10,60326.39,2375.68,1865.65,3.0926
2024-10-11,62540.0,3329.92,1983.6371,3.1718
2024-10-12,63206.22,992.77,1994.7086,3.1559
2024-10-13,62870.02,1235.72,2036.9657,3.24
2024-10-14,66083.99,4042.19,2128.3721,3.2207
2024-10-15,67074.14,3149.99,2070.0407,3.0862
2024-10-16,67620.01,1673.51,2018.8407,2.9856
2024-10-17,67421.78,1273.4,1992.0064,2.9545
2024-10-18,68428.0,1807.64,1976.4843,2.8884
2024-10-19,68378.0,683.26,1976.6243,2.8907
2024-10-20,69031.99,1300.0,1985.4793,2.8762
2024-10-21,67377.5,2678.85,2008.955,2.9816
2024-10-22,67426.0,1264.59,2003.5907,2.9715
2024-10-23,66668.65,2212.83,2001.4536,3.0021
2024-10-24,68198.28,2340.0,1998.905,2.931
2024-10-25,66698.33,3175.2,1987.8536,2.9804
2024-10-26,67092.76,1014.65,1989.4164,2.9652
2024-10-27,68021.7,1418.32,2002.4593,2.9439
2024-10-28,69962.21,2652.0,1903.16,2.7203
2024-10-29,72736.42,3860.12,1953.8836,2.6863
2024-10-30,72344.74,1525.0,1943.2757,2.6861
2024-10-31,70292.01,3014.24,2067.6214,2.9415
2024-11-01,69496.01,2812.81,2139.4193,3.0785
2024-11-02,69374.74,914.23,2155.9171,3.1076
2024-11-03,68775.99,1912.27,2199.6507,3.1983
2024-11-04,67850.01,2665.0,2198.6614,3.2405
2024-11-05,69372.01,3101.28,2329.8536,3.3585
2024-11-06,75571.99,7102.0,2679.08,3.5451
2024-11-07,75857.89,2433.99,2685.7936,3.5406
2024-11-08,76509.78,1644.99,2576.4929,3.3675
2024-11-09,76677.46,1185.34,2588.685,3.3761
2024-11-10,80370.01,5008.0,2845.0907,3.54
2024-11-11,88647.99,9314.53,3320.9857,3.7463
2024-11-12,87952.01,4868.0,3392.9771,3.8578
2024-11-13,90375.2,7137.65,3793.8807,4.1979
2024-11-14,87325.59,5121.79,3944.42,4.5169
2024-11-15,91032.07,4776.62,4084.6921,4.4871
2024-11-16,90586.92,1723.49,4142.4964,4.573
2024-11-17,89855.99,2727.99,4200.7621,4.675
2024-11-18,90464.08,3217.1,4240.1979,4.6872
2024-11-19,92310.79,3548.51,4272.1429,4.628
2024-11-20,94286.56,3331.97,4002.855,4.2454
2024-11-21,98317.12,4948.0,4182.4271,4.254
2024-11-22,98892.0,2465.9,4241.0636,4.2886
2024-11-23,97672.4,1772.85,4283.0286,4.3851
2024-11-24,97900.04,2829.23,4127.4021,4.2159
2024-11-25,93010.01,6271.61,3910.0507,4.2039
2024-11-26,91965.16,4182.27,3861.07,4.1984
2024-11-27,95863.11,5416.07,3738.1,3.8994
2024-11-28,95643.98,1924.0,3509.6864,3.6695
2024-11-29,97460.0,3255.0,3400.9993,3.4896
2024-11-30,96407.99,1371.94,3375.8886,3.5017
2024-12-01,97185.18,2142.12,3334.0407,3.4306
2024-12-02,95840.62,3735.0,3371.0336,3.5173
2024-12-03,95849.69,2727.35,3312.3793,3.4558
2024-12-04,98587.32,4412.17,3389.5364,3.4381
2024-12-05,96945.63,13588.0,4006.6793,4.1329
2024-12-06,99740.84,5917.27,4253.2057,4.2643
2024-12-07,99831.99,1595.18,4240.515,4.2477
2024-12-08,101109.59,2693.3,4230.8057,4.1844
2024-12-09,97276.47,7065.88,4287.5393,4.4076
2024-12-10,96593.0,4013.46,4275.4814,4.4263
2024-12-11,101125.0,6229.76,4333.6021,4.2854
2024-12-12,100004.29,3228.36,4426.7707,4.4266
2024-12-13,101424.25,2690.26,4386.4321,4.3248
2024-12-14,101420.0,2040.59,4434.1929,4.3721
2024-12-15,104463.99,4012.86,4567.8171,4.3726
2024-12-16,106058.66,4460.07,4619.6079,4.3557
2024-12-17,106133.74,3031.51,4641.3336,4.3731
2024-12-18,100204.01,6524.98,4792.2486,4.7825
2024-12-19,97461.86,7100.11,4328.8279,4.4416
2024-12-20,97805.44,6000.46,4334.77,4.432
2024-12-21,97291.99,3142.22,4445.2729,4.569
2024-12-22,95186.27,3197.73,4481.3036,4.7079
2024-12-23,94881.47,4018.92,4263.6636,4.4937
2024-12-24,98663.58,5918.97,4399.7714,4.4594
2024-12-25,99429.6,1937.13,4093.155,4.1166
2024-12-26,95791.6,4764.56,4202.8836,4.3875
2024-12-27,94299.03,4044.57,4299.62,4.5596
2024-12-28,95300.0,1598.33,4268.03,4.4785
2024-12-29,93738.2,2330.48,4147.86,4.4249
2024-12-30,92792.05,3494.05,4078.8586,4.3957
2024-12-31,93576.0,4216.27,4163.4843,4.4493
2025-01-01,94591.79,2263.15,3859.0679,4.0797
2025-01-02,96984.79,3447.5,3598.1671,3.71
2025-01-03,98174.18,2876.9,3375.0557,3.4378
2025-01-04,98220.5,1263.64,3240.8714,3.2996
2025-01-05,98363.61,1560.06,3123.895,3.1759
2025-01-06,102235.6,4560.0,3162.5436,3.0934
2025-01-07,96954.61,6542.57,3207.0864,3.3078
2025-01-08,95060.61,4767.75,3409.2736,3.5864
2025-01-09,92552.49,4178.65,3367.4229,3.6384
2025-01-10,94726.11,3629.98,3337.8093,3.5236
2025-01-11,94599.99,1219.21,3310.7293,3.4997
2025-01-12,94545.06,1738.91,3268.4743,3.4571
2025-01-13,94536.1,6683.31,3496.2786,3.6984
2025-01-14,96560.86,3024.78,3411.1721,3.5327
2025-01-15,100497.35,4181.94,3548.2286,3.5307
2025-01-16,99987.3,3531.53,3554.2307,3.5547
2025-01-17,104077.48,5914.45,3771.1986,3.6235
2025-01-18,104556.23,2711.33,3874.605,3.7058
2025-01-19,101331.57,6770.83,4246.8029,4.191
2025-01-20,102260.01,10038.0,4638.0886,4.5356
2025-01-21,106143.82,7121.77,4679.46,4.4086
2025-01-22,103706.66,3055.34,4557.145,4.3943
2025-01-23,103910.34,5587.72,4657.7929,4.4825
2025-01-24,104870.5,4370.0,4710.6514,4.4919
2025-01-25,104746.85,1180.43,4707.8814,4.4945
2025-01-26,102620.0,2979.56,4796.4993,4.674
2025-01-27,102082.83,5482.23,4710.7079,4.6146
2025-01-28,101335.52,3527.32,4746.6036,4.684
2025-01-29,103733.24,3454.67,4694.6557,4.5257
2025-01-30,104722.94,3178.9,4669.4679,4.4589
2025-01-31,102429.56,4452.0,4565.0071,4.4567
2025-02-01,100635.65,2504.2,4550.2121,4.5215
2025-02-02,97700.59,5306.6,4445.6243,4.5503
2025-02-03,101328.52,11269.01,4533.5536,4.4741
2025-02-04,97763.13,5582.31,4423.5921,4.5248
2025-02-05,96612.43,2994.0,4419.2107,4.5742
2025-02-06,96554.35,3443.36,4266.0421,4.4183
2025-02-07,96506.8,4517.65,4276.5886,4.4314
2025-02-08,96444.74,1192.0,4277.415,4.4351
2025-02-09,96462.75,2610.09,4251.0243,4.4069
2025-02-10,97430.82,3089.0,4080.0793,4.1877
2025-02-11,95778.2,3601.54,4085.3807,4.2655
2025-02-12,97869.99,4031.76,4126.6014,4.2164
2025-02-13,96608.14,2866.55,4104.2907,4.2484
2025-02-14,97500.48,2573.18,3970.0893,4.0719
2025-02-15,97569.66,748.68,3844.695,3.9405
2025-02-16,96118.12,1658.29,3584.1014,3.7289
2025-02-17,95780.0,1841.59,2910.7143,3.039
2025-02-18,95671.74,3365.82,2752.3936,2.8769
2025-02-19,96644.37,1870.0,2672.1079,2.7649
2025-02-20,98305.0,2296.27,2590.1729,2.6348
2025-02-21,96181.98,4603.05,2596.2729,2.6993
2025-02-22,96551.01,1209.51,2597.5236,2.6903
2025-02-23,96258.0,1422.06,2512.6643,2.6103
2025-02-24,91552.88,5150.74,2659.9314,2.9053
2025-02-25,88680.4,6489.7,2866.2286,3.2321
2025-02-26,84250.09,7158.14,3089.5414,3.6671
2025-02-27,84708.58,4361.97,3196.3571,3.7734
2025-02-28,84349.94,6861.48,3502.6643,4.1525
2025-03-01,86064.53,2733.22,3644.4171,4.2345
2025-03-02,94270.0,9949.4,4236.6393,4.4942
2025-03-03,86220.61,9299.35,4769.3364,5.5316
2025-03-04,87281.98,7467.52,5062.315,5.8
2025-03-05,90606.01,4665.47,5261.9914,5.8076
2025-03-06,89931.89,4974.64,5453.3036,6.0638
2025-03-07,86801.75,6615.99,5597.085,6.4481
2025-03-08,86222.45,1678.78,5630.6043,6.5303
2025-03-09,80734.37,6500.0,5993.3143,7.4235
2025-03-10,78595.86,6663.55,6101.3721,7.763
2025-03-11,82932.99,7011.4,6138.6364,7.4019
2025-03-12,83680.12,3932.2,5908.2121,7.0605
2025-03-13,81115.78,4396.43,5910.6736,7.2867
2025-03-14,83983.2,4490.87,5741.3443,6.8363
2025-03-15,84338.44,1058.28,5621.7057,6.6657
2025-03-16,82574.53,3135.92,5135.0286,6.2187
2025-03-17,84010.03,2300.83,4635.1343,5.5174
2025-03-18,82715.03,2887.08,4307.96,5.2082
2025-03-19,86845.94,4452.84,4292.7721,4.943
2025-03-20,84223.39,3798.44,4208.7579,4.9971
2025-03-21,84088.79,1675.08,3855.8357,4.5854
2025-03-22,83840.59,914.07,3801.2136,4.5339
2025-03-23,86082.5,2319.89,3502.6343,4.0689
2025-03-24,87498.16,3246.34,3258.5479,3.7241
2025-03-25,87392.87,2229.63,2916.9929,3.3378
2025-03-26,86909.17,2415.0,2808.6214,3.2317
2025-03-27,87232.01,1956.39,2634.3329,3.0199
2025-03-28,84424.38,3930.67,2594.3186,3.0729
2025-03-29,82648.54,2979.92,2731.5786,3.3051
2025-03-30,82389.99,1969.64,2648.2729,3.2143
2025-03-31,82550.01,2664.56,2674.2536,3.2396
2025-04-01,85158.34,3146.72,2692.7993,3.1621
2025-04-02,82516.29,6180.0,2816.1679,3.4129
2025-04-03,83213.09,2786.78,2743.9064,3.2974
2025-04-04,83889.87,3061.0,2842.9007,3.3888
2025-04-05,83537.99,1886.05,2912.3279,3.4862
2025-04-06,78430.0,6663.8,3222.6071,4.1089
2025-04-07,79163.24,6735.58,3471.8386,4.3857
2025-04-08,76322.42,4628.09,3643.1571,4.7734
2025-04-09,82615.22,8968.0,4111.2286,4.9764
2025-04-10,79607.3,4288.85,4277.8329,5.3737
2025-04-11,83423.84,5330.42,4377.815,5.2477
2025-04-12,85276.9,3112.05,4387.2529,5.1447
2025-04-13,83760.0,3065.77,4465.5479,5.3314
2025-04-14,84591.58,2121.99,4426.7929,5.2331
2025-04-15,83643.99,2896.42,4408.9143,5.271
2025-04-16,84030.38,2388.36,4138.0829,4.9245
2025-04-17,84947.91,1733.75,4062.8664,4.7828
2025-04-18,84474.69,828.12,3903.375,4.6208
2025-04-19,85077.01,1313.54,3862.4814,4.54
2025-04-20,85179.24,1371.24,3484.4414,4.0907
2025-04-21,87516.23,3321.23,3240.5593,3.7028
2025-04-22,93442.99,6811.97,3396.5507,3.6349
2025-04-23,93691.08,2760.64,2953.1679,3.152
2025-04-24,93980.47,2344.99,2814.3207,2.9946
2025-04-25,94638.68,2902.08,2640.8679,2.7905
2025-04-26,94628.0,1328.31,2513.4579,2.6561
2025-04-27,93749.3,1766.42,2420.6471,2.582
2025-04-28,95011.18,2829.99,2471.2186,2.601
2025-04-29,94256.82,1718.99,2387.1164,2.5326
2025-04-30,94172.0,2318.45,2382.1229,2.5295
2025-05-01,96489.91,3293.59,2493.54,2.5842
2025-05-02,96887.14,1545.68,2544.7943,2.6266
2025-05-03,95856.42,1182.66,2535.4457,2.645
2025-05-04,94277.62,2153.1,2591.2929,2.7486
2025-05-05,94733.68,1684.9,2474.4121,2.612
2025-05-06,96834.02,3543.65,2240.9607,2.3142
2025-05-07,97030.5,1947.39,2182.8714,2.2497
2025-05-08,103261.6,7269.47,2534.62,2.4546
2025-05-09,102971.99,2046.16,2473.4829,2.4021
2025-05-10,104809.53,2165.81,2533.3043,2.4171
2025-05-11,104118.0,1626.94,2523.3414,2.4235
2025-05-12,102791.32,5101.08,2685.5621,2.6126
2025-05-13,104103.72,3546.55,2816.1021,2.7051
2025-05-14,103507.82,1754.9,2775.8486,2.6818
2025-05-15,103763.71,2809.63,2741.28,2.6418
2025-05-16,103463.9,1449.84,2734.4343,2.6429
2025-05-17,103126.65,1097.36,2728.3414,2.6456
2025-05-18,106454.26,3554.91,2828.4707,2.657
2025-05-19,105573.74,5108.62,3073.0221,2.9108
2025-05-20,106849.99,3135.28,3043.8529,2.8487
2025-05-21,109643.99,4697.37,3240.28,2.9553
2025-05-22,111696.21,2802.63,2921.22,2.6153
2025-05-23,107318.3,5000.0,3132.2086,2.9186
2025-05-24,107761.91,2630.62,3165.4093,2.9374
2025-05-25,109004.19,2699.35,3242.01,2.9742
2025-05-26,109434.79,1751.64,3002.7643,2.7439
2025-05-27,108938.17,3201.43,2978.1129,2.7338
2025-05-28,107781.78,2515.27,3032.425,2.8135
2025-05-29,105589.75,3569.05,3086.6693,2.9233
2025-05-30,103985.48,2692.12,3175.4036,3.0537
2025-05-31,104591.88,1831.45,3227.8386,3.0861
2025-06-01,105642.93,2114.42,3124.9464,2.958
2025-06-02,105857.99,2275.75,2922.5986,2.7609
2025-06-03,105376.89,1922.17,2835.9479,2.6912
2025-06-04,104696.86,1821.0,2630.4929,2.5125
2025-06-05,101508.68,5537.45,2825.8371,2.7838
2025-06-06,104288.44,4237.2,2771.3514,2.6574
2025-06-07,105552.15,2028.91,2728.3721,2.5849
2025-06-08,105734.0,1524.0,2644.4186,2.501
2025-06-09,110263.02,5211.8,2891.5729,2.6224
2025-06-10,110274.39,2068.97,2810.6829,2.5488
2025-06-11,108645.12,2328.01,2797.3071,2.5747
2025-06-12,105671.73,3141.83,2766.7914,2.6183
2025-06-13,106066.59,3515.22,2825.5843,2.664
2025-06-14,105414.64,1952.0,2834.195,2.6886
2025-06-15,105594.01,1634.04,2799.8821,2.6516
2025-06-16,106794.53,3972.01,2921.0436,2.7352
2025-06-17,104551.17,4400.32,3098.0543,2.9632
2025-06-18,104886.78,2050.27,3114.4307,2.9693
2025-06-19,104658.59,1296.9,2811.5343,2.6864
2025-06-20,103297.99,4179.65,2807.4236,2.7178
2025-06-21,102120.01,3144.74,2887.1257,2.8272
2025-06-22,100963.87,5199.62,3149.67,3.1196
2025-06-23,105333.93,6460.87,3238.8893,3.0749
2025-06-24,106083.0,1667.98,3210.2471,3.0262
2025-06-25,107340.58,2327.27,3210.1943,2.9907
2025-06-26,106947.06,1709.95,3107.9171,2.906
2025-06-27,107047.59,1378.58,2955.3,2.7607
2025-06-28,107296.79,766.24,2870.6029,2.6754
2025-06-29,108356.93,1355.98,2850.7414,2.6309
2025-06-30,107146.5,2056.66,2713.9307,2.5329
2025-07-01,105681.14,2289.15,2563.1329,2.4253
2025-07-02,108849.6,4629.81,2747.3857,2.524
2025-07-03,109584.78,1998.78,2797.52,2.5528
2025-07-04,107984.24,2522.59,2679.1586,2.4811
2025-07-05,108198.12,664.25,2501.9807,2.3124
2025-07-06,109203.84,1899.99,2266.2929,2.0753
2025-07-07,108262.94,2186.8,1961.0021,1.8113
2025-07-08,108922.98,1786.99,1969.5029,1.8082
2025-07-09,111233.99,3675.26,2065.7879,1.8572
2025-07-10,116010.0,6368.0,2398.5057,2.0675
2025-07-11,117527.66,3647.76,2560.59,2.1787
2025-07-12,117420.0,1299.95,2598.7121,2.2132
2025-07-13,119086.64,2263.21,2663.5143,2.2366
2025-07-14,119841.18,4312.82,2824.6686,2.357
2025-07-15,117758.09,4203.91,2961.4371,2.5148
2025-07-16,118630.43,3046.55,2848.3471,2.401
2025-07-17,119177.56,3545.14,2958.8014,2.4827
2025-07-18,117924.84,4007.95,3064.8986,2.599
2025-07-19,117840.0,1222.56,3104.7779,2.6347
2025-07-20,117265.12,2389.78,3139.7629,2.6775
2025-07-21,117380.36,3161.73,3209.4007,2.7342
2025-07-22,119954.42,4119.8,3376.03,2.8144
2025-07-23,118755.99,2789.0,3312.7257,2.7895
2025-07-24,118340.99,2346.9,3025.5043,2.5566
2025-07-25,117614.31,3728.41,3031.265,2.5773
2025-07-26,117919.99,1158.97,3021.195,2.5621
2025-07-27,119415.55,1941.15,2998.1907,2.5107
2025-07-28,118062.32,2372.5,2859.5964,2.4221
2025-07-29,117950.76,2322.61,2725.2179,2.3105
2025-07-30,117840.3,2995.77,2721.5907,2.3096
2025-07-31,115764.08,3422.45,2712.8271,2.3434
2025-08-01,113297.93,3329.42,2664.3607,2.3516
2025-08-02,112546.35,2060.49,2724.2129,2.4205
2025-08-03,114208.8,2879.97,2759.2264,2.4159
2025-08-04,115055.03,1612.4,2648.56,2.302
2025-08-05,114129.75,2477.81,2531.275,2.2179
2025-08-06,114992.27,2360.87,2500.6943,2.1747
2025-08-07,117472.01,3362.0,2573.2014,2.1905
2025-08-08,116674.74,1751.29,2431.9786,2.0844
2025-08-09,116462.25,1644.92,2466.6893,2.118
2025-08-10,119294.01,2850.48,2531.6414,2.1222
2025-08-11,118686.0,4285.05,2668.2521,2.2482
2025-08-12,120134.08,2116.96,2653.5629,2.2088
2025-08-13,123306.43,4746.87,2778.6414,2.2534
2025-08-14,118295.09,7294.0,3055.1807,2.5827
2025-08-15,117342.05,2412.83,2989.71,2.5479
2025-08-16,117380.66,755.01,2896.4614,2.4676
2025-08-17,117405.01,1402.79,2790.9486,2.3772
2025-08-18,116227.05,2903.61,2883.1779,2.4806
2025-08-19,112872.94,3993.11,2991.4136,2.6502
2025-08-20,114271.24,2235.38,2982.45,2.61
2025-08-21,112500.0,2806.09,2942.7421,2.6158
2025-08-22,116935.99,5744.26,3227.9543,2.7604
2025-08-23,115438.05,2470.0,3286.8886,2.8473
2025-08-24,113493.59,4986.68,3439.4743,3.0305
2025-08-25,110111.98,4393.18,3447.1979,3.1306
2025-08-26,111763.22,3704.34,3560.5821,3.1858
2025-08-27,111262.01,2279.58,3384.3471,3.0418
2025-08-28,112566.9,2623.48,3050.7386,2.7102
2025-08-29,108377.4,5174.74,3248.0179,2.997
2025-08-30,108816.33,1576.05,3306.6636,3.0388
2025-08-31,108246.35,1403.09,3306.685,3.0548
2025-09-01,109237.42,2657.4,3289.0986,3.011
2025-09-02,111240.01,3378.13,3245.1714,2.9173
2025-09-03,111705.71,2046.56,3231.6843,2.893
2025-09-04,110730.87,2850.88,3234.8836,2.9214
2025-09-05,110659.99,3177.66,3051.555,2.7576
2025-09-06,110187.97,1330.7,2970.1764,2.6956
2025-09-07,111137.34,1420.0,2715.4136,2.4433
2025-09-08,112065.23,2302.59,2566.0857,2.2898
2025-09-09,111546.39,2526.63,2481.9636,2.2251
2025-09-10,113960.0,3395.68,2561.685,2.2479
2025-09-11,115482.69,2058.09,2521.3,2.1833
2025-09-12,116029.42,1924.64,2289.15,1.9729
2025-09-13,115918.29,1171.51,2260.2543,1.9499
2025-09-14,115268.01,1030.19,2233.6186,1.9378
2025-09-15,115349.71,2373.99,2213.375,1.9188
2025-09-16,116788.96,2227.16,2131.1629,1.8248
2025-09-17,116447.59,2565.92,2168.26,1.862
2025-09-18,117073.53,1807.24,2093.7143,1.7884
2025-09-19,115632.38,2359.99,2035.3093,1.7602
2025-09-20,115685.63,713.34,1991.2121,1.7212
2025-09-21,115232.29,631.06,1934.8593,1.6791
2025-09-22,112650.99,3579.25,2026.0493,1.7985
2025-09-23,111998.8,1831.77,1976.4164,1.7647
2025-09-24,113307.0,2897.34,1940.8207,1.7129
2025-09-25,108994.49,4878.72,2142.2943,1.9655
2025-09-26,109643.46,1679.93,2124.815,1.9379
2025-09-27,109635.85,679.51,2089.6721,1.906
2025-09-28,112163.95,3160.01,2241.8021,1.9987
2025-09-29,114311.96,2839.35,2275.0421,1.9902
2025-09-30,114048.93,2135.73,2268.5114,1.9891
2025-10-01,118594.99,4682.43,2419.6907,2.0403
2025-10-02,120529.35,2742.76,2486.5136,2.063
2025-10-03,122232.0,4646.69,2649.8493,2.1679
2025-10-04,122391.0,1290.0,2691.0393,2.1987
2025-10-05,123482.31,3572.42,2901.1364,2.3494
2025-10-06,124658.54,3115.63,2868.0207,2.3007
2025-10-07,121332.95,4551.06,3062.2557,2.5238
2025-10-08,123306.0,3131.11,3078.9536,2.497
2025-10-09,121662.4,4111.47,3024.15,2.4857
2025-10-10,112774.5,20550.0,4372.0121,3.8768
2025-10-11,110644.4,3760.8,4592.1043,4.1503
2025-10-12,114958.8,6204.94,4809.5993,4.1838
2025-10-13,115166.0,2347.31,4774.4536,4.1457
2025-10-14,113028.14,5543.96,5017.8986,4.4395
2025-10-15,110763.28,3448.35,4929.75,4.4507
2025-10-16,108194.28,4555.45,5059.2279,4.6761
2025-10-17,106431.68,5711.77,5135.305,4.825
2025-10-18,107185.01,1176.8,5127.2193,4.7835
2025-10-19,108642.78,3346.71,5111.0971,4.7045
2025-10-20,110532.09,4303.04,5195.9121,4.7008
2025-10-21,108297.67,6526.28,5336.9993,4.9281
2025-10-22,107567.44,2497.19,5291.7193,4.9194
2025-10-23,110078.18,3793.61,5269.015,4.7866
2025-10-24,111004.89,2404.97,3972.9414,3.5791
2025-10-25,111646.27,1270.33,3795.0507,3.3992
2025-10-26,114559.4,4206.35,3652.2943,3.1881
2025-10-27,114107.65,2569.99,3668.2,3.2147
2025-10-28,112898.45,3875.0,3548.9886,3.1435
2025-10-29,110021.29,4443.73,3620.0871,3.2904
2025-10-30,108322.88,5287.66,3672.3879,3.3902
2025-10-31,109608.01,2914.72,3472.5986,3.1682
2025-11-01,110098.1,1169.68,3472.09,3.1536
2025-11-02,110540.68,1778.67,3360.0871,3.0397
2025-11-03,106583.04,5443.44,3441.5443,3.229
2025-11-04,101497.22,8354.64,3572.1414,3.5194
2025-11-05,103885.16,5567.94,3791.4807,3.6497
2025-11-06,101346.04,3899.05,3799.0121,3.7486
2025-11-07,103339.08,4835.5,3972.6214,3.8443
2025-11-08,102312.94,1952.22,4021.3279,3.9304
2025-11-09,104722.96,4095.62,4013.4186,3.8324
2025-11-10,106011.13,2405.09,4001.64,3.7747
2025-11-11,103058.99,5023.91,4083.705,3.9625
2025-11-12,101654.37,4519.74,4089.1343,4.0226
2025-11-13,99692.02,6084.61,4146.0593,4.1589
2025-11-14,94594.0,5853.57,4355.9771,4.6049
2025-11-15,95596.24,2288.19,4435.8707,4.6402
2025-11-16,94261.44,3629.56,4568.0771,4.8462
2025-11-17,92215.14,4823.0,4523.76,4.9057
2025-11-18,92960.83,4582.23,4254.3021,4.5764
2025-11-19,91554.96,4372.22,4168.8936,4.5534
2025-11-20,86637.23,7060.0,4394.6757,5.0725
2025-11-21,85129.43,6898.94,4542.0643,5.3355
2025-11-22,84739.74,2120.0,4554.0486,5.3742
2025-11-23,86830.0,3460.07,4508.6521,5.1925
2025-11-24,88300.01,3956.0,4619.4314,5.2315
2025-11-25,87369.96,2403.99,4432.2943,5.073
2025-11-26,90484.02,4349.31,4420.1207,4.885
2025-11-27,91333.95,1860.09,4118.3693,4.5091
2025-11-28,90890.7,2911.37,3908.2121,4.2999
2025-11-29,90802.44,1010.18,3816.9257,4.2035
2025-11-30,90360.0,1663.11,3676.465,4.0687
2025-12-01,86286.01,6594.24,3802.9821,4.4074
2025-12-02,91277.88,6123.26,3913.0557,4.287
2025-12-03,93429.95,3159.77,3826.4521,4.0955
2025-12-04,92078.06,3191.0,3550.095,3.8555
2025-12-05,89330.04,4636.36,3388.4821,3.7932
2025-12-06,89236.79,1381.96,3335.765,3.7381
2025-12-07,90395.31,4040.72,3377.24,3.7361
2025-12-08,90634.34,2675.15,3285.7507,3.6253
2025-12-09,92678.8,5088.99,3477.5364,3.7522
2025-12-10,92015.37,2912.85,3374.9321,3.6678
2025-12-11,92513.38,4294.37,3548.8093,3.836
2025-12-12,90268.42,3274.0,3574.7114,3.9601
2025-12-13,90240.01,868.16,3564.5671,3.9501
2025-12-14,88172.17,2895.04,3652.5621,4.1425
2025-12-15,86432.08,4906.0,3531.9736,4.0864
2025-12-16,87863.42,2909.98,3302.4536,3.7586
2025-12-17,86243.22,5051.85,3437.6021,3.9859
2025-12-18,85516.41,5027.6,3568.7879,4.1732
2025-12-19,88136.94,4289.73,3544.0286,4.021
2025-12-20,88360.9,777.31,3500.8393,3.962
2025-12-21,88658.86,1481.73,3318.0543,3.7425
2025-12-22,88620.79,2688.23,3318.9886,3.7452
2025-12-23,87486.0,2338.1,3122.4964,3.5691
2025-12-24,87669.45,1629.89,3030.8564,3.4571
2025-12-25,87225.27,1658.02,2842.5457,3.2589
2025-12-26,87369.56,2912.67,2816.7364,3.2239
2025-12-27,87877.01,730.95,2806.9357,3.1942
2025-12-28,87952.71,653.75,2646.8436,3.0094
2025-12-29,87237.13,3599.58,2553.5279,2.9271
2025-12-30,88485.49,2554.34,2528.125,2.8571
2025-12-31,87648.22,1950.0,2306.5643,2.6316
2026-01-01,88839.04,1369.02,2045.2371,2.3022
2026-01-02,89995.13,2581.93,1923.2514,2.1371
2026-01-03,90628.01,1427.15,1969.6686,2.1734
2026-01-04,91529.73,1182.0,1948.2593,2.1286
2026-01-05,93859.71,3274.27,1990.1193,2.1203
2026-01-06,93747.97,3181.5,2050.3621,2.1871
2026-01-07,91364.16,3072.45,2153.4021,2.3569
2026-01-08,91099.99,2376.99,2204.7571,2.4202
2026-01-09,90641.28,2387.89,2167.2729,2.391
2026-01-10,90504.7,428.0,2145.6336,2.3707
2026-01-11,91013.65,1047.89,2173.7864,2.3884
2026-01-12,91296.2,2391.51,2087.4957,2.2865
2026-01-13,95414.0,5452.34,2294.4957,2.4048
2026-01-14,96951.78,3365.21,2395.5821,2.4709
2026-01-15,95604.8,2058.86,2444.8564,2.5573
2026-01-16,95550.94,1578.01,2373.1479,2.4836
2026-01-17,95147.77,617.78,2315.3357,2.4334
2026-01-18,93673.14,1915.72,2367.7443,2.5277
2026-01-19,92631.0,1762.94,2259.7921,2.4396
2026-01-20,88427.66,4974.02,2387.8293,2.7003
2026-01-21,89454.73,3310.47,2404.8307,2.6883
2026-01-22,89559.67,1844.62,2366.8043,2.6427
2026-01-23,89600.26,2646.63,2385.2857,2.6621
2026-01-24,89225.34,795.31,2411.5221,2.7027
2026-01-25,86670.36,3244.41,2568.4164,2.9634
2026-01-26,88347.08,2350.37,2565.4779,2.9039
2026-01-27,89250.0,2218.83,2334.5129,2.6157
2026-01-28,89299.99,1766.35,2220.3086,2.4863
2026-01-29,84650.16,5964.67,2499.295,2.9525
2026-01-30,84260.49,3617.75,2644.9907,3.1391
2026-01-31,78741.09,8550.12,3211.5864,4.0787
2026-02-01,76968.21,3724.0,3340.7493,4.3404
2026-02-02,78738.61,4756.0,3554.5393,4.5144
2026-02-03,75770.21,6241.31,3645.06,4.8107
2026-02-04,73165.83,5083.52,3771.7064,5.155
2026-02-05,62909.86,10996.18,4425.3893,7.0345
2026-02-06,70580.26,11751.33,5075.725,7.1914
2026-02-07,69289.38,4390.07,5332.4936,7.696
2026-02-08,70330.38,3383.41,5342.4221,7.5962
2026-02-09,70138.0,3145.53,5399.2193,7.698
2026-02-10,68841.29,2727.59,5435.5593,7.8958
2026-02-11,67082.52,3536.88,5562.0257,8.2913
2026-02-12,66272.17,3292.52,5371.1579,8.1047
2026-02-13,68853.96,3610.51,5370.6407,7.8
2026-02-14,69822.95,1829.88,4890.6236,7.0043
2026-02-15,68832.58,2983.0,4837.695,7.0282
2026-02-16,68892.43,2832.56,4700.3064,6.8227
2026-02-17,67503.52,2620.44,4441.6729,6.5799
2026-02-18,66461.0,2606.22,4264.7229,6.4169
2026-02-19,67003.73,1688.17,3599.865,5.3726
2026-02-20,68020.01,2038.19,2906.0693,4.2724
2026-02-21,67975.93,1164.01,2675.6364,3.9362
2026-02-22,67643.4,1055.0,2509.3214,3.7096
2026-02-23,64656.02,3796.07,2555.7886,3.9529
2026-02-24,64058.15,2516.47,2540.7086,3.9663
2026-02-25,67988.04,6075.56,2722.0429,4.0037
2026-02-26,67485.18,2360.0,2655.4343,3.9348
2026-02-27,65872.1,3302.34,2633.4221,3.9978
2026-02-28,66973.26,4730.0,2840.5736,4.2414
2026-03-01,65776.47,3143.99,2852.0729,4.336
2026-03-02,68830.06,4836.79,2995.2321,4.3516
2026-03-03,68338.0,3100.08,3029.4921,4.4331
2026-03-04,72666.77,6650.0,3318.3336,4.5665
2026-03-05,70890.72,2912.68,3405.7986,4.8043
2026-03-06,68114.02,3675.2,3522.7279,5.1718
2026-03-07,67262.91,1635.78,3556.4257,5.2874
2026-03-08,65971.2,2581.51,3665.4621,5.5562
2026-03-09,68432.16,3694.68,3658.22,5.3458
2026-03-10,69948.63,3385.59,3720.3,5.3186
2026-03-11,70191.86,2343.09,3453.695,4.9204
2026-03-12,70541.34,1594.09,3398.9871,4.8184
2026-03-13,70930.0,3527.73,3415.0864,4.8147
2026-03-14,71211.95,990.92,3148.0093,4.4206
2026-03-15,72815.24,2340.18,3090.5943,4.2444
2026-03-16,74884.67,2638.67,2933.5857,3.9175
2026-03-17,73909.36,2600.81,2897.9236,3.9209
2026-03-18,71246.54,4172.34,2720.9479,3.8191
2026-03-19,69930.0,2820.44,2714.3593,3.8815
2026-03-20,70510.73,1979.0,2593.2021,3.6777
2026-03-21,68918.12,2529.52,2657.0407,3.8554
2026-03-22,67859.0,2228.13,2631.7993,3.8783
2026-03-23,70906.45,4371.91,2680.1729,3.7799
2026-03-24,70556.74,2476.93,2615.2686,3.7066
2026-03-25,71336.53,1618.09,2563.4829,3.5935
2026-03-26,68820.31,3283.82,2684.1779,3.9003
2026-03-27,66407.28,3630.8,2691.54,4.0531
2026-03-28,66377.03,1356.85,2717.6779,4.0943
2026-03-29,66010.93,2130.5,2702.7007,4.0943
2026-03-30,66797.37,2369.06,2683.4429,4.0173
2026-03-31,68284.48,2591.44,2682.7736,3.9288
2026-04-01,68113.92,1731.25,2508.41,3.6827
2026-04-02,66901.99,2941.26,2517.04,3.7623
2026-04-03,66964.3,1088.42,2453.4271,3.6638
2026-04-04,67300.42,787.02,2328.9629,3.4605
2026-04-05,69034.18,2524.54,2350.135,3.4043
2026-04-06,68853.66,2051.46,2184.3886,3.1725
2026-04-07,71924.22,5028.99,2366.6786,3.2905
2026-04-08,71069.93,2149.77,2404.6557,3.3835
2026-04-09,71787.97,2679.0,2361.4543,3.2895
2026-04-10,72962.7,2007.85,2245.5293,3.0776
2026-04-11,73043.16,1276.91,2239.8193,3.0664
2026-04-12,70740.98,2631.36,2275.595,3.2168
2026-04-13,74417.99,4333.01,2415.8771,3.2464
2026-04-14,74131.55,2242.53,2390.955,3.2253
2026-04-15,74809.99,1911.0,2403.7943,3.2132
2026-04-16,75154.29,2224.91,2352.6264,3.1304
2026-04-17,77072.0,3803.6,2546.5679,3.3041
2026-04-18,75691.76,1974.92,2631.4179,3.4765
2026-04-19,73801.79,2477.76,2628.0764,3.561
2026-04-20,75840.97,2834.31,2683.9943,3.539
2026-04-21,76336.15,2106.0,2475.2093,3.2425
2026-04-22,78178.23,3339.87,2560.2164,3.2748
2026-04-23,78257.48,1702.5,2490.4664,3.1824
2026-04-24,77437.13,1317.85,2441.1807,3.1525
2026-04-25,77625.0,745.12,2403.1957,3.0959
2026-04-26,78657.55,1634.49,2331.9907,2.9647
2026-04-27,77371.32,3026.02,2238.6343,2.8934
2026-04-28,76342.77,1811.4,2207.8393,2.892
2026-04-29,75780.0,2967.41,2283.2971,3.0131
2026-04-30,76346.57,1345.49,2220.4814,2.9084
2026-05-01,78231.13,2593.7,2134.06,2.7279
2026-05-02,78686.85,1159.48,2075.8143,2.6381
2026-05-03,78568.57,1362.92,1996.1829,2.5407
2026-05-04,79861.01,2574.99,1977.66,2.4764
2026-05-05,80905.52,1982.76,1968.8571,2.4335
2026-05-06,81447.01,2118.86,1881.6421,2.3103
2026-05-07,80006.0,2208.32,1917.7721,2.397
2026-05-08,80193.17,1318.52,1917.82,2.3915
2026-05-09,80678.4,950.15,1932.465,2.3953
2026-05-10,82210.07,2199.55,1972.8264,2.3997
2026-05-11,81745.65,1917.03,1893.6129,2.3165
2026-05-12,80504.47,1944.41,1903.1136,2.364
2026-05-13,79313.61,2569.99,1874.7264,2.3637
2026-05-14,81089.99,3126.13,2001.915,2.4688
2026-05-15,79113.21,3005.45,2031.3257,2.5676
2026-05-16,78148.05,1587.77,2061.9179,2.6385
2026-05-17,77457.67,1864.83,2097.7686,2.7083
2026-05-18,77001.87,1749.0,2038.7693,2.6477
2026-05-19,76834.36,1269.91,1987.8514,2.5872
2026-05-20,77552.23,1336.3,1931.9543,2.4912
2026-05-21,77615.52,1480.53,1879.9693,2.4222
2026-05-22,75539.5,2540.82,1967.2764,2.6043
2026-05-23,76752.01,3114.58,2121.8786,2.7646
2026-05-24,77064.96,1435.15,2067.2786,2.6825
2026-05-25,77322.01,991.27,2001.1529,2.5881
2026-05-26,75930.01,2402.03,2033.84,2.6786
2026-05-27,74449.3,1930.16,1988.1379,2.6705
2026-05-28,73617.51,2007.95,1908.2679,2.5921
2026-05-29,73460.78,2001.61,1836.565,2.5001
2026-05-30,73884.38,927.76,1789.4214,2.4219
2026-05-31,73674.39,875.66,1718.7664,2.3329
